emg0,emg1,emg2,emg3,emg4,emg5,emg6,emg7
19,26,48,173,215,75,28,22
20,26,49,170,204,73,30,23
20,23,47,168,196,83,34,22
19,24,50,174,181,81,31,21
18,24,49,186,203,78,31,21
18,21,40,174,189,67,28,17
18,20,38,173,172,68,26,16
17,21,34,175,172,61,22,15
17,19,32,165,177,57,23,16
18,20,42,188,166,55,24,18
17,19,42,194,177,58,25,21
18,19,43,203,189,57,28,20
17,16,44,202,198,59,27,21
17,18,45,195,205,58,26,19
17,18,35,164,202,60,27,18
18,20,39,165,192,57,26,16
19,25,45,146,174,62,25,17
20,28,44,152,175,57,25,17
19,27,42,157,185,56,26,18
20,30,46,161,185,72,29,19
19,30,41,161,193,75,28,19
17,25,33,161,204,71,27,18
18,24,33,156,212,81,27,17
20,26,43,148,192,88,28,18
20,23,43,147,189,76,23,16
19,22,43,124,177,72,24,17
20,24,46,111,177,73,25,17
18,22,46,102,177,63,23,16
20,20,37,128,174,57,22,15
18,23,40,139,165,59,23,17
19,30,41,161,193,75,28,19
17,25,33,161,204,71,27,18
18,24,33,156,212,81,27,17
20,26,43,148,192,88,28,18
20,23,43,147,189,76,23,16
19,22,43,124,177,72,24,17
20,24,46,111,177,73,25,17
18,22,46,102,177,63,23,16
20,20,37,128,174,57,22,15
18,23,40,139,165,59,23,17
20,24,46,167,173,63,24,16
22,23,45,178,178,60,23,16
23,25,45,199,199,56,25,21
21,25,49,188,197,57,27,22
21,24,45,174,212,52,27,22
20,23,43,153,216,49,27,22
17,24,45,154,204,49,29,24
17,23,48,120,152,57,31,23
17,21,45,136,148,60,30,22
18,20,49,163,159,70,31,21
20,21,46,165,192,84,37,23
22,21,44,157,184,86,36,23
21,21,39,156,194,83,34,22
21,22,42,152,204,81,33,23
20,22,44,148,189,80,35,24
18,20,44,148,166,72,28,23
15,19,44,144,182,74,27,22
18,22,67,190,177,78,27,23
18,21,71,183,186,78,31,21
18,23,67,164,179,69,30,20
20,21,46,165,192,84,37,23
22,21,44,157,184,86,36,23
21,21,39,156,194,83,34,22
21,22,42,152,204,81,33,23
20,22,44,148,189,80,35,24
18,20,44,148,166,72,28,23
15,19,44,144,182,74,27,22
18,22,67,190,177,78,27,23
18,21,71,183,186,78,31,21
18,23,67,164,179,69,30,20
18,24,68,171,176,66,31,21
19,28,75,182,160,66,34,21
18,26,56,148,177,58,36,21
17,26,49,150,172,56,33,22
19,26,53,150,176,53,31,23
19,25,57,148,170,59,33,23
20,21,54,197,189,76,31,24
20,22,54,195,173,79,28,24
20,22,57,203,166,81,28,22
21,21,53,204,170,90,32,22
21,20,48,198,152,85,30,23
19,20,42,158,133,74,29,22
18,18,40,152,139,82,32,21
19,19,37,144,155,82,33,22
19,22,44,160,154,74,30,22
19,24,45,179,168,74,28,18
19,24,46,219,176,66,28,18
19,24,48,230,182,57,27,18
19,24,50,233,168,64,28,18
21,24,46,220,202,69,31,20
21,20,48,198,152,85,30,23
19,20,42,158,133,74,29,22
18,18,40,152,139,82,32,21
19,19,37,144,155,82,33,22
19,22,44,160,154,74,30,22
19,24,45,179,168,74,28,18
19,24,46,219,176,66,28,18
19,24,48,230,182,57,27,18
19,24,50,233,168,64,28,18
21,24,46,220,202,69,31,20
24,25,54,228,225,73,34,22
24,27,59,218,242,76,35,23
25,28,61,211,233,76,34,24
25,27,59,204,228,73,32,24
22,25,56,207,205,78,34,23
20,24,52,186,181,83,34,23
20,23,44,137,147,86,34,23
20,22,48,166,178,86,34,22
20,22,47,174,204,84,36,22
20,22,46,180,231,78,31,22
19,22,41,189,230,83,29,20
19,21,46,209,244,81,26,17
17,21,38,176,220,81,28,17
18,20,39,175,198,79,24,17
17,20,49,178,184,75,25,17
17,22,52,177,202,72,26,19
19,23,46,154,219,78,31,20
20,24,46,156,232,76,31,19
20,24,49,162,235,78,32,18
21,23,41,181,205,87,31,18
19,22,41,189,230,83,29,20
19,21,46,209,244,81,26,17
17,21,38,176,220,81,28,17
18,20,39,175,198,79,24,17
17,20,49,178,184,75,25,17
17,22,52,177,202,72,26,19
19,23,46,154,219,78,31,20
20,24,46,156,232,76,31,19
20,24,49,162,235,78,32,18
21,23,41,181,205,87,31,18
21,20,41,165,181,74,31,16
19,18,42,160,153,69,28,17
18,17,41,161,140,71,27,18
20,22,43,163,156,81,31,19
21,22,40,134,169,83,34,20
22,26,45,142,170,86,33,21
21,27,44,149,153,81,32,20
21,26,46,159,144,87,32,19
18,24,45,168,129,77,28,19
17,25,50,177,145,74,24,20
18,22,43,185,175,76,28,19
18,22,47,182,179,74,27,19
20,24,47,184,209,68,27,20
22,24,45,174,209,70,26,22
22,22,39,155,188,69,29,21
20,21,37,153,165,69,26,22
21,22,42,176,171,79,27,23
21,21,43,165,145,77,26,23
19,20,39,151,172,78,29,22
19,25,43,160,192,74,34,22
18,22,43,185,175,76,28,19
18,22,47,182,179,74,27,19
20,24,47,184,209,68,27,20
22,24,45,174,209,70,26,22
22,22,39,155,188,69,29,21
20,21,37,153,165,69,26,22
21,22,42,176,171,79,27,23
21,21,43,165,145,77,26,23
19,20,39,151,172,78,29,22
19,25,43,160,192,74,34,22
23,25,50,172,188,71,33,24
21,24,46,164,198,67,31,23
20,23,54,179,205,69,33,22
21,23,55,181,177,69,31,21
20,20,55,179,157,65,21,21
17,21,54,164,168,67,22,18
19,25,55,149,147,66,26,20
18,25,49,148,123,64,24,20
18,26,50,175,141,60,25,19
17,25,48,175,149,69,28,19
16,23,46,174,140,72,30,18
14,21,44,185,155,67,27,15
15,21,51,204,181,71,32,17
15,21,49,180,179,75,31,17
18,23,50,174,185,69,30,18
19,24,51,163,182,66,30,20
20,23,53,152,221,74,31,21
21,23,54,133,228,70,31,23
20,23,54,135,226,71,33,23
20,24,58,144,219,73,34,23
16,23,46,174,140,72,30,18
14,21,44,185,155,67,27,15
15,21,51,204,181,71,32,17
15,21,49,180,179,75,31,17
18,23,50,174,185,69,30,18
19,24,51,163,182,66,30,20
20,23,53,152,221,74,31,21
21,23,54,133,228,70,31,23
20,23,54,135,226,71,33,23
20,24,58,144,219,73,34,23
20,23,56,151,236,75,34,22
19,22,51,161,195,67,36,22
20,22,45,156,182,73,34,21
21,24,47,170,195,88,33,20
20,23,49,180,202,87,33,19
20,23,49,196,218,82,31,21
21,25,53,201,229,89,31,21
20,24,48,196,221,83,30,20
20,24,53,207,237,63,30,21
19,23,60,224,226,63,29,21
20,24,61,216,201,68,35,19
20,23,59,210,185,59,32,18
18,26,57,220,237,64,33,21
18,27,56,206,212,70,32,20
19,28,47,196,212,71,36,21
18,26,44,196,211,72,31,21
18,27,47,181,205,72,29,20
18,27,54,181,144,69,28,17
17,23,50,177,162,64,29,19
16,23,50,197,187,61,27,17
20,24,61,216,201,68,35,19
20,23,59,210,185,59,32,18
18,26,57,220,237,64,33,21
18,27,56,206,212,70,32,20
19,28,47,196,212,71,36,21
18,26,44,196,211,72,31,21
18,27,47,181,205,72,29,20
18,27,54,181,144,69,28,17
17,23,50,177,162,64,29,19
16,23,50,197,187,61,27,17
18,23,57,204,170,56,26,18
18,21,60,227,188,57,27,18
19,21,57,238,192,68,29,19
20,23,59,244,169,68,27,17
21,23,59,218,152,69,25,19
19,24,53,205,159,70,26,17
19,23,51,227,141,73,27,19
18,22,48,216,148,60,24,19
17,21,45,212,176,87,29,19
15,20,42,214,169,85,30,20
17,17,43,213,165,91,33,20
16,17,38,169,164,89,32,22
16,17,41,166,138,92,31,20
17,19,43,179,118,74,35,21
17,21,46,188,140,72,35,19
15,21,43,195,162,66,34,19
16,21,44,192,170,66,34,18
16,23,43,176,194,67,36,19
16,24,44,191,182,63,31,20
18,22,43,196,166,66,32,19
17,17,43,213,165,91,33,20
16,17,38,169,164,89,32,22
16,17,41,166,138,92,31,20
17,19,43,179,118,74,35,21
17,21,46,188,140,72,35,19
15,21,43,195,162,66,34,19
16,21,44,192,170,66,34,18
16,23,43,176,194,67,36,19
16,24,44,191,182,63,31,20
18,22,43,196,166,66,32,19
18,21,45,200,151,70,30,19
19,22,46,208,137,69,29,20
20,21,51,211,112,70,31,21
18,19,50,180,123,68,29,21
17,21,46,179,133,68,29,22
19,22,44,165,152,71,33,22
18,22,46,152,180,70,35,22
17,22,39,144,175,69,33,23
19,20,41,159,166,70,34,23
19,18,47,135,183,75,35,23
16,22,56,163,172,66,33,23
16,23,56,173,146,76,31,23
17,24,59,191,167,77,33,21
18,26,62,219,190,77,35,20
19,26,62,247,210,70,32,19
21,23,61,261,205,71,32,20
25,23,60,265,212,70,33,21
26,25,62,257,195,67,29,21
25,24,55,221,184,67,26,21
25,26,56,186,195,71,29,23
16,22,56,163,172,66,33,23
16,23,56,173,146,76,31,23
17,24,59,191,167,77,33,21
18,26,62,219,190,77,35,20
19,26,62,247,210,70,32,19
21,23,61,261,205,71,32,20
25,23,60,265,212,70,33,21
26,25,62,257,195,67,29,21
25,24,55,221,184,67,26,21
25,26,56,186,195,71,29,23
24,26,52,143,195,70,29,22
21,26,52,130,214,64,29,22
20,23,56,131,228,70,28,22
21,23,58,131,226,76,31,23
20,24,54,123,185,76,32,22
19,23,52,119,185,78,30,22
22,25,64,157,169,80,31,20
21,27,57,157,160,74,31,19
22,29,63,175,152,68,32,18
24,28,64,182,144,68,29,17
23,28,69,212,151,66,31,18
22,27,62,188,161,76,29,18
22,26,70,211,154,76,30,18
21,23,64,194,204,77,27,18
18,23,63,192,211,80,27,18
18,25,65,184,208,83,26,21
16,25,61,182,196,77,29,19
15,25,53,169,202,79,30,20
14,25,52,177,155,82,32,20
14,22,53,189,155,73,33,20
23,28,69,212,151,66,31,18
22,27,62,188,161,76,29,18
22,26,70,211,154,76,30,18
21,23,64,194,204,77,27,18
18,23,63,192,211,80,27,18
18,25,65,184,208,83,26,21
16,25,61,182,196,77,29,19
15,25,53,169,202,79,30,20
14,25,52,177,155,82,32,20
14,22,53,189,155,73,33,20
14,21,44,169,167,69,32,16
16,20,42,178,186,68,30,19
17,19,38,154,178,70,31,19
18,21,43,169,177,67,30,20
20,22,43,154,171,81,35,19
20,20,46,144,168,85,36,20
18,22,49,147,136,86,35,18
17,23,52,149,149,86,36,20
16,22,50,129,154,84,35,19
16,24,50,138,162,70,30,21
17,26,52,172,159,69,31,21
18,25,52,166,159,66,35,20
19,25,50,168,147,61,32,19
19,26,50,169,145,62,31,19
18,24,48,178,124,65,30,16
18,24,45,183,111,64,29,17
18,23,44,177,151,63,25,17
18,24,45,191,146,67,25,19
18,24,47,188,138,69,28,20
18,25,48,176,139,68,29,22
17,26,52,172,159,69,31,21
18,25,52,166,159,66,35,20
19,25,50,168,147,61,32,19
19,26,50,169,145,62,31,19
18,24,48,178,124,65,30,16
18,24,45,183,111,64,29,17
18,23,44,177,151,63,25,17
18,24,45,191,146,67,25,19
18,24,47,188,138,69,28,20
18,25,48,176,139,68,29,22
17,25,50,144,163,60,27,22
21,25,51,136,130,58,29,22
19,24,49,124,151,61,31,21
19,25,55,145,157,62,30,23
19,23,55,153,159,67,30,21
21,26,53,164,163,71,32,21
20,28,53,199,198,76,35,21
20,29,60,204,196,74,33,22
20,28,53,214,191,78,32,19
21,30,50,202,201,79,33,18
19,26,47,204,197,85,34,18
17,23,47,204,168,88,30,18
16,21,36,200,177,81,29,16
18,21,43,198,189,77,31,17
17,20,45,213,188,86,32,18
16,19,47,203,208,80,31,16
15,19,45,172,207,75,29,16
17,20,50,171,209,78,30,16
19,22,44,143,225,81,30,19
20,22,43,130,223,66,29,22
51,79,159,783,760,250,48,47
52,81,161,776,709,253,45,48
48,79,145,751,662,261,44,45
51,87,179,811,598,241,46,48
48,81,177,777,486,218,46,45
50,83,189,808,590,213,45,45
52,84,205,808,635,241,46,43
54,82,198,781,625,251,48,44
49,68,163,696,654,266,45,36
47,65,151,680,669,263,44,36
46,61,131,562,539,252,44,36
170,79,99,560,483,207,52,43
218,83,93,535,448,163,51,53
227,94,89,508,397,109,51,58
308,119,83,444,404,124,82,78
338,144,87,413,396,111,135,98
357,155,79,314,387,112,143,104
363,155,82,301,349,172,145,116
372,153,88,348,423,182,147,116
336,141,99,398,391,176,135,108
353,121,86,417,409,174,84,94
348,98,85,392,426,198,83,114
339,99,75,374,413,151,83,105
357,100,83,360,380,141,82,107
349,88,77,314,433,142,78,110
347,79,79,280,424,154,153,116
325,73,84,286,408,136,153,102
334,67,86,260,431,147,174,129
322,62,73,226,455,162,177,136
331,68,71,211,406,179,181,133
353,121,86,417,409,174,84,94
348,98,85,392,426,198,83,114
339,99,75,374,413,151,83,105
357,100,83,360,380,141,82,107
349,88,77,314,433,142,78,110
347,79,79,280,424,154,153,116
325,73,84,286,408,136,153,102
334,67,86,260,431,147,174,129
322,62,73,226,455,162,177,136
331,68,71,211,406,179,181,133
407,82,70,271,386,175,154,138
425,91,71,300,462,170,154,143
436,95,82,335,457,160,136,139
463,108,89,381,433,147,136,132
446,111,99,450,435,130,132,131
357,100,106,462,460,130,94,117
318,90,104,440,392,122,79,96
282,91,99,449,393,119,63,52
251,80,99,435,413,126,57,49
267,75,87,372,418,118,53,52
259,73,76,319,391,146,51,47
251,70,77,329,384,153,50,54
243,63,70,285,362,159,44,54
226,50,67,244,319,147,40,49
275,49,68,211,307,157,41,47
282,50,66,241,312,122,40,49
282,49,67,260,317,135,40,42
274,43,71,268,368,132,39,39
248,38,62,269,349,133,38,37
161,34,67,286,329,118,38,31
259,73,76,319,391,146,51,47
251,70,77,329,384,153,50,54
243,63,70,285,362,159,44,54
226,50,67,244,319,147,40,49
275,49,68,211,307,157,41,47
282,50,66,241,312,122,40,49
282,49,67,260,317,135,40,42
274,43,71,268,368,132,39,39
248,38,62,269,349,133,38,37
161,34,67,286,329,118,38,31
107,30,64,267,374,121,34,28
103,32,62,258,367,94,32,23
117,34,60,282,360,108,34,29
120,36,64,298,375,122,40,30
119,30,57,288,388,127,39,29
120,40,71,303,446,121,43,32
137,41,70,292,475,124,44,37
127,44,73,276,481,130,45,31
140,44,71,251,460,111,39,32
150,51,79,275,465,123,40,35
154,46,70,269,368,130,36,34
120,44,72,267,361,126,39,31
133,40,68,251,314,121,36,32
139,44,67,245,322,127,37,34
149,42,66,225,318,112,36,33
162,45,82,242,363,155,43,35
171,50,87,276,357,166,46,35
178,50,88,286,357,154,46,34
167,47,95,312,480,156,46,33
173,47,91,338,486,162,47,33
154,46,70,269,368,130,36,34
120,44,72,267,361,126,39,31
133,40,68,251,314,121,36,32
139,44,67,245,322,127,37,34
149,42,66,225,318,112,36,33
162,45,82,242,363,155,43,35
171,50,87,276,357,166,46,35
178,50,88,286,357,154,46,34
167,47,95,312,480,156,46,33
173,47,91,338,486,162,47,33
164,44,78,307,449,114,40,33
170,37,69,293,437,110,34,34
152,37,65,280,435,110,35,36
151,36,59,268,287,132,42,35
161,34,53,226,279,136,42,36
166,33,47,234,308,139,45,35
157,34,48,215,286,128,45,32
150,35,56,278,317,135,46,30
139,33,53,268,320,122,37,28
97,31,52,258,301,111,34,25
73,30,61,249,257,108,29,24
68,27,64,275,276,134,29,27
67,26,61,245,264,127,26,26
68,26,59,259,257,127,28,26
55,25,60,281,299,130,35,23
63,23,53,277,322,138,37,24
86,28,53,246,325,133,37,23
114,28,54,269,303,133,38,27
149,32,56,256,310,122,40,30
156,34,60,239,330,139,38,34
73,30,61,249,257,108,29,24
68,27,64,275,276,134,29,27
67,26,61,245,264,127,26,26
68,26,59,259,257,127,28,26
55,25,60,281,299,130,35,23
63,23,53,277,322,138,37,24
86,28,53,246,325,133,37,23
114,28,54,269,303,133,38,27
149,32,56,256,310,122,40,30
156,34,60,239,330,139,38,34
154,39,61,270,347,148,39,34
140,38,57,266,336,132,41,33
129,39,59,273,338,142,46,36
91,40,60,270,344,153,43,34
80,39,57,268,287,136,41,30
76,35,57,266,258,128,40,29
74,32,56,262,245,136,37,29
49,32,47,191,217,123,34,21
39,27,46,192,207,104,34,20
34,25,41,261,201,140,37,23
35,33,49,253,212,146,40,26
33,34,47,259,244,140,43,29
34,34,54,294,271,143,41,29
42,35,56,295,284,151,42,31
61,35,56,235,298,115,42,29
61,31,49,225,344,98,39,29
84,33,59,235,351,97,36,26
87,36,74,218,383,107,38,29
85,37,82,233,412,128,42,28
88,43,88,242,410,135,39,28
35,33,49,253,212,146,40,26
33,34,47,259,244,140,43,29
34,34,54,294,271,143,41,29
42,35,56,295,284,151,42,31
61,35,56,235,298,115,42,29
61,31,49,225,344,98,39,29
84,33,59,235,351,97,36,26
87,36,74,218,383,107,38,29
85,37,82,233,412,128,42,28
88,43,88,242,410,135,39,28
97,42,87,259,391,139,42,28
127,43,83,270,416,149,47,33
137,43,72,277,402,158,47,34
156,45,63,269,495,135,45,34
150,40,64,269,534,137,46,34
155,41,64,255,513,127,43,33
118,39,67,280,486,132,37,29
111,35,65,255,501,111,36,27
82,38,74,292,428,112,34,31
89,39,78,325,419,121,39,34
69,37,76,317,436,146,38,35
69,37,74,286,450,139,39,35
60,38,72,286,428,138,38,33
90,30,60,278,443,145,40,32
107,33,55,254,425,133,35,31
111,32,56,280,417,127,35,30
112,34,57,274,392,127,33,30
112,33,55,293,380,126,32,32
87,33,57,297,358,128,31,30
53,27,50,305,341,139,31,29
69,37,76,317,436,146,38,35
69,37,74,286,450,139,39,35
60,38,72,286,428,138,38,33
90,30,60,278,443,145,40,32
107,33,55,254,425,133,35,31
111,32,56,280,417,127,35,30
112,34,57,274,392,127,33,30
112,33,55,293,380,126,32,32
87,33,57,297,358,128,31,30
53,27,50,305,341,139,31,29
43,34,65,295,377,129,30,30
38,36,71,295,413,136,33,30
39,39,74,267,412,144,34,30
46,40,79,271,379,159,36,30
56,41,78,242,370,147,36,29
56,37,70,225,350,139,36,28
53,32,61,221,298,132,41,29
55,30,64,235,330,145,38,27
51,29,57,186,318,120,36,29
42,28,55,243,339,117,34,28
39,29,55,246,328,121,35,26
39,29,55,255,357,117,27,24
59,33,61,269,366,142,34,27
59,32,66,292,390,141,36,23
58,33,69,249,444,161,40,29
59,32,70,252,432,161,44,29
61,35,71,276,413,197,46,31
40,29,59,267,372,171,40,29
39,30,54,266,344,168,38,31
36,28,50,311,262,155,33,26
39,29,55,246,328,121,35,26
39,29,55,255,357,117,27,24
59,33,61,269,366,142,34,27
59,32,66,292,390,141,36,23
58,33,69,249,444,161,40,29
59,32,70,252,432,161,44,29
61,35,71,276,413,197,46,31
40,29,59,267,372,171,40,29
39,30,54,266,344,168,38,31
36,28,50,311,262,155,33,26
35,31,44,322,304,162,30,26
40,29,45,305,335,130,29,24
39,29,48,306,351,125,32,25
37,32,47,278,348,129,32,23
42,33,47,211,372,129,36,25
44,34,61,223,362,127,35,26
36,32,57,210,327,112,35,26
37,35,58,206,376,115,34,25
39,34,65,204,389,138,35,25
41,38,68,245,382,144,37,31
43,34,61,224,355,136,36,29
42,35,61,241,362,131,33,27
42,34,60,241,314,140,33,28
40,33,54,241,296,141,35,29
34,28,52,228,276,138,34,22
34,28,43,231,277,139,33,23
35,29,48,233,273,178,39,25
37,27,49,224,248,174,39,22
37,28,51,240,258,164,39,23
36,28,50,259,314,167,36,22
43,34,61,224,355,136,36,29
42,35,61,241,362,131,33,27
42,34,60,241,314,140,33,28
40,33,54,241,296,141,35,29
34,28,52,228,276,138,34,22
34,28,43,231,277,139,33,23
35,29,48,233,273,178,39,25
37,27,49,224,248,174,39,22
37,28,51,240,258,164,39,23
36,28,50,259,314,167,36,22
39,29,50,257,317,170,38,24
42,29,48,270,327,145,31,23
42,28,42,268,323,152,33,25
41,28,43,258,313,162,33,24
45,29,47,224,226,155,34,24
39,26,48,241,244,166,35,22
39,27,51,219,266,156,39,23
37,29,54,228,301,170,39,22
39,28,55,240,293,161,38,25
36,28,56,253,315,164,37,23
40,30,59,225,301,173,37,24
37,28,58,223,319,182,36,23
41,28,56,210,305,166,35,23
44,28,54,221,360,170,36,20
43,27,52,226,361,172,35,23
40,25,48,221,375,150,37,21
42,29,53,256,367,138,33,25
39,29,57,252,379,134,31,25
38,29,61,238,347,131,28,26
39,31,65,252,348,126,31,25
40,30,59,225,301,173,37,24
37,28,58,223,319,182,36,23
41,28,56,210,305,166,35,23
44,28,54,221,360,170,36,20
43,27,52,226,361,172,35,23
40,25,48,221,375,150,37,21
42,29,53,256,367,138,33,25
39,29,57,252,379,134,31,25
38,29,61,238,347,131,28,26
39,31,65,252,348,126,31,25
39,33,66,257,328,125,27,29
42,30,58,243,308,122,28,27
42,29,53,278,301,129,28,28
41,34,50,305,310,130,32,29
41,31,44,275,300,130,30,28
42,29,43,276,303,131,31,25
42,31,49,284,284,153,33,26
44,35,57,305,251,152,38,28
41,31,57,271,221,141,35,28
42,32,55,275,213,141,38,28
40,32,55,275,256,152,36,27
36,35,52,264,331,139,38,26
35,32,50,207,340,130,35,23
36,32,46,239,333,145,36,24
34,32,57,275,342,152,35,24
40,35,59,286,362,162,36,27
44,34,59,266,293,162,36,27
47,34,56,302,342,159,36,27
47,33,58,284,365,168,39,30
44,32,51,251,366,206,39,29
40,32,55,275,256,152,36,27
36,35,52,264,331,139,38,26
35,32,50,207,340,130,35,23
36,32,46,239,333,145,36,24
34,32,57,275,342,152,35,24
40,35,59,286,362,162,36,27
44,34,59,266,293,162,36,27
47,34,56,302,342,159,36,27
47,33,58,284,365,168,39,30
44,32,51,251,366,206,39,29
42,28,49,240,318,194,40,27
37,25,49,278,327,190,35,26
35,24,48,255,292,191,36,26
39,22,45,266,264,192,33,23
40,24,42,266,275,152,31,22
40,25,43,292,283,142,31,21
39,26,43,270,301,145,32,22
40,27,43,286,309,163,32,21
40,27,43,296,327,144,36,22
40,29,44,308,354,135,38,23
37,30,49,284,349,138,36,23
39,30,46,307,332,149,40,26
37,33,50,282,357,142,42,27
36,33,56,272,334,137,38,25
40,34,58,268,293,169,39,26
41,35,56,278,328,176,41,29
38,35,60,247,362,170,38,28
36,34,58,252,345,163,38,28
38,33,55,253,350,173,38,28
33,29,54,258,377,157,34,27
37,30,49,284,349,138,36,23
39,30,46,307,332,149,40,26
37,33,50,282,357,142,42,27
36,33,56,272,334,137,38,25
40,34,58,268,293,169,39,26
41,35,56,278,328,176,41,29
38,35,60,247,362,170,38,28
36,34,58,252,345,163,38,28
38,33,55,253,350,173,38,28
33,29,54,258,377,157,34,27
31,26,54,293,378,169,33,23
34,26,49,289,386,173,34,25
31,27,53,298,348,191,37,23
26,27,49,299,392,192,40,22
26,28,46,289,377,180,41,23
30,32,44,238,339,168,41,25
30,35,54,260,306,183,40,24
30,34,53,249,346,168,41,25
29,33,62,357,316,157,40,26
29,34,68,401,441,167,42,28
28,35,78,428,463,168,47,30
33,44,110,503,519,155,49,31
53,78,174,692,656,150,53,49
60,92,209,756,764,166,56,54
62,100,229,836,756,153,57,56
62,100,231,846,765,145,57,56
64,105,228,825,768,134,58,60
66,106,210,701,733,144,57,58
63,99,183,682,680,139,57,56
63,94,165,685,697,174,58,57
43,64,168,936,689,265,70,47
42,61,143,833,736,264,67,44
40,61,122,752,736,261,60,39
38,61,117,628,675,259,55,38
42,60,127,614,651,261,56,39
41,59,121,525,622,258,53,38
43,59,134,562,554,261,61,43
97,63,134,572,516,251,59,40
233,76,127,546,494,187,64,47
303,97,105,456,411,140,147,58
312,105,98,429,391,132,157,63
335,107,72,314,450,148,154,59
388,122,75,271,492,190,156,63
363,116,73,319,506,236,160,59
324,112,74,342,555,248,95,63
328,111,77,335,544,255,78,60
310,112,92,360,489,236,78,69
248,98,94,378,516,216,74,67
300,99,95,325,526,170,62,69
351,88,98,318,533,176,55,65
350,76,103,393,557,167,52,62
379,77,97,401,627,199,52,51
419,87,112,457,640,209,59,53
389,94,110,463,620,214,61,50
344,115,107,461,613,199,64,63
362,141,100,433,597,194,174,100
351,156,98,397,516,164,180,106
309,149,80,336,430,144,178,106
356,148,93,425,441,130,179,114
372,139,100,421,419,133,186,105
350,76,103,393,557,167,52,62
379,77,97,401,627,199,52,51
419,87,112,457,640,209,59,53
389,94,110,463,620,214,61,50
344,115,107,461,613,199,64,63
362,141,100,433,597,194,174,100
351,156,98,397,516,164,180,106
309,149,80,336,430,144,178,106
356,148,93,425,441,130,179,114
372,139,100,421,419,133,186,105
394,131,102,413,540,130,115,77
385,110,98,400,539,123,112,71
374,112,94,402,567,108,111,74
286,105,82,334,673,121,109,62
259,93,79,384,672,105,90,59
280,69,74,396,623,112,66,63
320,73,73,402,605,109,52,63
322,65,70,392,574,134,49,55
324,61,72,394,429,122,55,56
311,60,65,365,401,117,55,55
230,56,68,329,301,110,49,45
230,45,65,322,273,115,47,44
235,43,67,297,257,96,52,51
235,40,62,244,210,104,50,47
238,39,60,233,240,106,54,47
235,38,56,207,248,102,50,45
162,37,59,204,262,106,49,42
122,34,60,209,256,100,49,31
105,35,63,241,281,90,51,29
91,35,65,201,338,107,54,30
230,56,68,329,301,110,49,45
230,45,65,322,273,115,47,44
235,43,67,297,257,96,52,51
235,40,62,244,210,104,50,47
238,39,60,233,240,106,54,47
235,38,56,207,248,102,50,45
162,37,59,204,262,106,49,42
122,34,60,209,256,100,49,31
105,35,63,241,281,90,51,29
91,35,65,201,338,107,54,30
72,32,64,223,364,113,58,31
43,32,62,238,374,116,60,30
39,33,58,247,393,124,58,31
68,30,53,222,375,120,52,31
69,29,58,215,344,105,44,28
71,36,69,196,334,97,41,29
92,38,79,238,360,90,41,29
138,40,81,263,363,100,45,33
133,41,89,285,377,106,45,33
138,40,81,288,455,104,47,33
141,34,71,299,456,109,57,30
131,32,63,291,460,105,55,30
86,31,65,279,456,92,61,30
94,31,57,259,445,97,60,29
89,29,58,256,340,101,59,29
84,29,56,231,315,97,51,29
81,28,55,195,254,93,51,27
73,27,57,189,267,91,40,26
85,27,56,205,290,78,44,27
86,28,61,217,273,70,45,25
141,34,71,299,456,109,57,30
131,32,63,291,460,105,55,30
86,31,65,279,456,92,61,30
94,31,57,259,445,97,60,29
89,29,58,256,340,101,59,29
84,29,56,231,315,97,51,29
81,28,55,195,254,93,51,27
73,27,57,189,267,91,40,26
85,27,56,205,290,78,44,27
86,28,61,217,273,70,45,25
90,29,63,275,342,95,47,26
92,31,63,281,359,102,44,27
97,35,61,272,399,97,47,28
71,35,62,254,390,102,43,27
104,33,60,237,383,100,43,29
103,33,58,194,376,84,46,28
106,32,56,278,447,84,46,31
101,31,53,279,419,86,46,32
99,32,55,287,407,84,48,31
81,37,56,293,416,83,46,30
83,37,55,282,395,75,39,31
100,37,55,184,310,97,42,27
100,37,58,185,301,93,37,23
99,37,57,190,296,92,36,24
87,34,55,190,304,93,42,21
120,35,54,199,296,96,46,26
107,37,55,218,305,82,43,27
108,33,49,223,356,87,42,28
109,33,52,215,375,84,40,26
107,35,52,249,411,86,33,29
83,37,55,282,395,75,39,31
100,37,55,184,310,97,42,27
100,37,58,185,301,93,37,23
99,37,57,190,296,92,36,24
87,34,55,190,304,93,42,21
120,35,54,199,296,96,46,26
107,37,55,218,305,82,43,27
108,33,49,223,356,87,42,28
109,33,52,215,375,84,40,26
107,35,52,249,411,86,33,29
61,35,56,234,401,95,34,25
54,34,54,213,407,100,37,24
56,33,57,242,360,98,37,24
57,32,53,252,397,105,39,27
75,33,54,216,359,104,41,28
72,33,55,219,358,100,38,28
78,33,64,228,429,88,34,29
95,36,63,171,450,113,38,34
94,38,65,173,410,108,37,32
79,36,64,191,425,114,42,29
80,33,59,215,440,112,45,30
105,34,51,210,381,110,47,31
109,38,54,228,333,99,45,31
117,37,56,322,378,98,48,32
126,36,56,317,355,95,44,33
125,34,64,318,335,100,39,32
103,36,62,320,396,99,36,30
79,32,60,318,429,84,35,26
85,33,56,238,407,99,43,30
94,34,54,229,414,97,44,32
80,33,59,215,440,112,45,30
105,34,51,210,381,110,47,31
109,38,54,228,333,99,45,31
117,37,56,322,378,98,48,32
126,36,56,317,355,95,44,33
125,34,64,318,335,100,39,32
103,36,62,320,396,99,36,30
79,32,60,318,429,84,35,26
85,33,56,238,407,99,43,30
94,34,54,229,414,97,44,32
101,36,54,219,429,93,44,32
105,34,64,253,347,95,45,33
105,29,60,241,320,96,46,33
103,31,64,230,308,104,38,30
85,33,65,257,308,103,37,28
76,32,61,253,290,102,37,28
72,33,66,266,317,100,40,28
68,37,73,278,327,103,43,27
75,35,70,263,309,91,44,25
89,33,71,252,324,98,44,26
90,33,71,277,330,97,47,27
98,32,60,230,311,97,46,28
99,28,52,230,325,91,42,27
79,24,54,240,332,80,40,27
78,28,61,263,300,102,43,28
76,29,58,251,302,101,39,27
74,31,58,271,292,99,37,25
77,30,58,275,334,98,42,25
79,33,66,333,355,103,41,25
62,31,60,303,365,78,41,22
90,33,71,277,330,97,47,27
98,32,60,230,311,97,46,28
99,28,52,230,325,91,42,27
79,24,54,240,332,80,40,27
78,28,61,263,300,102,43,28
76,29,58,251,302,101,39,27
74,31,58,271,292,99,37,25
77,30,58,275,334,98,42,25
79,33,66,333,355,103,41,25
62,31,60,303,365,78,41,22
90,31,63,283,351,82,43,25
89,28,60,278,360,94,44,26
89,32,60,269,293,96,40,25
89,30,45,176,281,98,44,26
95,29,44,186,273,98,41,28
86,28,39,183,288,92,38,25
76,27,39,163,273,81,37,24
73,24,40,152,270,98,37,25
71,25,47,185,238,103,33,23
67,25,47,179,272,99,31,23
52,26,52,205,248,107,33,22
51,27,53,200,241,106,31,23
48,26,57,227,241,86,30,21
46,29,61,208,256,73,28,23
36,29,60,213,218,70,28,20
25,27,58,203,236,58,28,20
25,27,58,205,237,87,29,21
22,27,53,171,226,89,31,23
23,22,49,158,205,97,29,21
19,21,57,205,218,100,31,20
52,26,52,205,248,107,33,22
51,27,53,200,241,106,31,23
48,26,57,227,241,86,30,21
46,29,61,208,256,73,28,23
36,29,60,213,218,70,28,20
25,27,58,203,236,58,28,20
25,27,58,205,237,87,29,21
22,27,53,171,226,89,31,23
23,22,49,158,205,97,29,21
19,21,57,205,218,100,31,20
20,23,56,194,270,103,32,21
22,24,56,190,330,99,43,25
25,25,54,192,359,119,46,27
24,26,48,190,371,113,45,27
35,29,42,132,409,115,46,30
40,33,50,148,374,113,46,33
41,32,52,159,320,97,39,31
41,33,55,200,322,102,35,30
42,35,59,207,332,107,37,29
35,33,59,209,271,105,37,28
28,27,52,212,275,107,34,24
33,30,52,212,354,113,38,24
33,27,48,197,368,101,41,23
31,25,44,202,348,100,42,24
33,28,45,189,351,97,42,23
33,29,43,165,356,98,43,24
24,26,40,224,320,101,40,22
25,29,49,208,283,96,39,21
28,29,57,216,283,92,36,21
36,30,59,227,313,104,42,21
28,27,52,212,275,107,34,24
33,30,52,212,354,113,38,24
33,27,48,197,368,101,41,23
31,25,44,202,348,100,42,24
33,28,45,189,351,97,42,23
33,29,43,165,356,98,43,24
24,26,40,224,320,101,40,22
25,29,49,208,283,96,39,21
28,29,57,216,283,92,36,21
36,30,59,227,313,104,42,21
36,31,58,226,360,104,44,25
37,32,59,159,321,102,46,27
36,31,53,153,309,90,45,26
33,31,53,127,308,105,47,27
20,27,51,136,324,95,48,28
24,29,57,140,255,96,47,25
26,30,56,145,263,94,45,22
26,29,57,156,270,100,47,22
28,29,61,200,277,88,47,22
30,32,58,187,225,99,40,20
26,28,53,187,212,96,37,18
25,26,54,184,197,95,37,20
24,28,53,195,209,91,33,21
21,28,48,221,233,89,34,26
21,24,51,250,236,93,33,27
29,23,51,252,249,94,32,29
30,25,55,257,249,92,32,28
31,25,58,251,265,95,33,28
30,24,54,209,329,98,32,23
31,26,51,201,317,96,36,22
26,28,53,187,212,96,37,18
25,26,54,184,197,95,37,20
24,28,53,195,209,91,33,21
21,28,48,221,233,89,34,26
21,24,51,250,236,93,33,27
29,23,51,252,249,94,32,29
30,25,55,257,249,92,32,28
31,25,58,251,265,95,33,28
30,24,54,209,329,98,32,23
31,26,51,201,317,96,36,22
25,26,53,207,312,98,36,21
25,26,50,196,332,108,36,21
28,26,52,190,329,105,36,23
31,26,52,172,262,105,37,24
29,26,54,203,269,99,38,24
30,28,57,208,270,98,38,25
29,28,54,214,239,94,37,25
26,26,47,216,206,94,37,23
29,27,47,223,230,83,35,22
31,27,46,204,221,93,33,24
34,25,40,198,242,96,38,24
36,24,41,207,274,91,37,23
36,27,42,205,327,92,37,23
33,28,48,218,321,101,38,25
32,25,45,205,327,89,35,23
32,28,48,197,335,114,33,24
31,29,54,219,330,121,34,24
31,28,73,284,299,122,38,26
29,27,71,283,345,121,37,25
30,31,74,273,349,121,38,26
34,25,40,198,242,96,38,24
36,24,41,207,274,91,37,23
36,27,42,205,327,92,37,23
33,28,48,218,321,101,38,25
32,25,45,205,327,89,35,23
32,28,48,197,335,114,33,24
31,29,54,219,330,121,34,24
31,28,73,284,299,122,38,26
29,27,71,283,345,121,37,25
30,31,74,273,349,121,38,26
24,35,77,280,355,89,35,28
21,32,72,294,342,109,35,27
26,31,56,250,335,118,33,25
34,36,58,246,257,113,32,25
34,34,60,251,347,112,33,21
34,32,59,259,367,115,37,21
36,33,62,220,374,93,38,24
33,33,70,207,368,94,37,24
25,30,67,190,393,93,40,24
26,30,64,199,331,88,36,25
27,28,60,192,309,95,34,24
25,28,63,188,332,93,36,22
23,30,59,204,342,100,41,23
24,29,60,230,326,106,38,25
22,29,62,242,350,111,40,25
22,27,60,228,333,109,40,24
33,30,56,226,304,109,41,25
34,26,46,235,340,101,38,24
33,26,47,211,352,102,40,22
34,27,45,182,320,112,44,23
27,28,60,192,309,95,34,24
25,28,63,188,332,93,36,22
23,30,59,204,342,100,41,23
24,29,60,230,326,106,38,25
22,29,62,242,350,111,40,25
22,27,60,228,333,109,40,24
33,30,56,226,304,109,41,25
34,26,46,235,340,101,38,24
33,26,47,211,352,102,40,22
34,27,45,182,320,112,44,23
34,28,47,190,354,111,45,24
25,24,47,230,356,105,43,24
27,26,47,204,312,110,49,27
36,26,46,213,283,116,48,28
36,24,51,215,261,109,42,26
36,25,51,215,229,115,45,26
35,26,50,197,261,117,44,26
34,26,53,188,291,116,42,24
31,28,53,240,317,111,43,24
31,29,56,258,327,110,44,24
29,29,57,275,308,105,44,24
30,29,55,256,276,105,43,24
30,29,57,272,275,86,37,22
24,31,58,237,253,104,40,21
24,32,52,233,289,103,39,22
33,34,48,211,341,99,37,21
32,32,56,284,341,101,40,23
30,33,60,280,321,106,42,27
30,28,56,265,337,89,44,30
31,32,75,269,317,89,44,30
495,165,94,428,656,123,206,104
461,171,122,458,595,131,184,99
337,149,119,445,511,142,174,86
409,128,117,421,461,151,108,78
404,114,115,421,491,146,88,78
384,81,107,396,495,140,70,74
369,66,91,295,529,123,66,73
362,59,96,354,568,112,57,74
212,52,96,373,573,128,45,54
161,45,96,350,539,130,43,47
111,41,88,311,487,121,44,31
83,36,71,278,346,121,46,29
60,33,67,224,243,107,44,23
50,34,77,233,190,71,44,23
40,34,78,238,207,62,41,24
30,34,75,243,210,62,34,23
23,34,75,241,204,130,33,23
21,33,67,207,193,134,33,22
17,30,53,149,187,141,32,21
17,30,51,163,283,146,35,20
19,29,50,221,363,155,32,19
20,25,50,240,373,141,29,18
20,24,48,246,379,148,28,18
21,23,48,245,385,143,28,17
21,26,47,229,310,147,29,19
21,27,45,210,224,149,33,20
19,28,41,183,218,115,34,20
23,33,49,181,245,105,34,22
22,34,56,183,237,113,36,23
23,33,58,175,235,123,38,23
19,29,50,221,363,155,32,19
20,25,50,240,373,141,29,18
20,24,48,246,379,148,28,18
21,23,48,245,385,143,28,17
21,26,47,229,310,147,29,19
21,27,45,210,224,149,33,20
19,28,41,183,218,115,34,20
23,33,49,181,245,105,34,22
22,34,56,183,237,113,36,23
23,33,58,175,235,123,38,23
21,31,55,111,233,117,35,22
21,32,54,115,281,122,37,23
18,25,50,107,258,121,37,20
18,26,43,105,293,115,38,22
19,23,47,133,293,115,36,23
22,34,69,177,422,127,40,25
24,36,70,191,411,134,42,25
24,39,77,200,431,136,42,28
26,40,80,244,427,134,41,28
25,40,76,240,451,131,41,26
23,32,58,215,347,114,43,24
23,31,58,230,366,131,44,23
22,28,48,227,367,133,46,23
22,25,42,260,392,151,45,21
23,29,43,267,397,148,43,23
23,28,44,282,382,148,41,24
23,28,40,261,365,147,43,25
23,28,49,267,358,142,44,27
23,29,52,204,353,137,48,28
23,27,49,179,320,135,50,29
23,32,58,215,347,114,43,24
23,31,58,230,366,131,44,23
22,28,48,227,367,133,46,23
22,25,42,260,392,151,45,21
23,29,43,267,397,148,43,23
23,28,44,282,382,148,41,24
23,28,40,261,365,147,43,25
23,28,49,267,358,142,44,27
23,29,52,204,353,137,48,28
23,27,49,179,320,135,50,29
25,29,52,196,336,149,49,31
24,28,53,208,332,132,44,29
23,32,46,195,329,164,41,27
23,31,41,185,279,154,39,26
21,29,43,193,277,152,38,25
22,29,41,161,289,138,36,23
21,30,49,210,375,132,35,23
21,26,50,280,372,118,33,21
20,27,54,301,395,135,28,20
24,33,55,315,395,134,30,23
22,33,57,309,380,132,31,24
23,33,54,272,296,139,33,25
25,34,55,199,294,121,35,28
25,33,54,164,305,117,41,32
21,30,57,128,306,124,42,31
23,32,55,135,312,133,41,31
21,31,51,130,306,126,42,32
23,33,52,141,351,132,41,32
25,32,52,138,340,139,38,30
24,28,47,139,395,128,34,28
22,33,57,309,380,132,31,24
23,33,54,272,296,139,33,25
25,34,55,199,294,121,35,28
25,33,54,164,305,117,41,32
21,30,57,128,306,124,42,31
23,32,55,135,312,133,41,31
21,31,51,130,306,126,42,32
23,33,52,141,351,132,41,32
25,32,52,138,340,139,38,30
24,28,47,139,395,128,34,28
24,24,48,144,381,120,37,28
23,23,48,146,447,155,37,28
20,20,43,130,405,149,39,28
18,20,38,131,417,138,36,26
20,22,37,122,398,147,37,26
20,24,38,106,410,143,33,24
20,26,41,107,339,138,34,24
21,28,41,118,351,162,32,24
21,30,44,118,324,156,33,28
21,34,55,139,292,150,35,27
21,37,60,149,280,153,34,27
21,36,60,154,262,151,38,27
20,34,59,149,236,128,37,24
20,33,60,162,218,138,35,21
20,28,54,167,223,134,34,21
19,25,59,181,214,154,36,23
19,24,58,175,217,129,35,22
20,26,59,183,248,130,37,23
21,29,60,172,244,140,39,26
20,29,58,161,216,139,37,25
21,37,60,149,280,153,34,27
21,36,60,154,262,151,38,27
20,34,59,149,236,128,37,24
20,33,60,162,218,138,35,21
20,28,54,167,223,134,34,21
19,25,59,181,214,154,36,23
19,24,58,175,217,129,35,22
20,26,59,183,248,130,37,23
21,29,60,172,244,140,39,26
20,29,58,161,216,139,37,25
20,27,52,136,210,131,37,22
19,27,52,133,270,147,32,21
19,28,50,132,295,141,31,22
17,25,49,132,318,120,32,19
17,25,51,124,318,137,35,19
16,24,49,137,325,151,33,19
17,25,51,135,340,148,34,23
18,23,54,129,327,152,35,23
18,23,51,126,308,154,37,22
18,22,46,122,313,143,37,21
19,23,48,114,313,120,38,23
18,22,45,145,334,106,37,21
19,23,43,160,327,107,38,23
20,26,45,168,325,129,39,25
22,28,47,169,340,152,41,27
22,26,43,167,352,155,48,27
23,27,43,144,294,151,48,27
22,26,43,133,280,148,46,25
21,22,43,141,307,134,42,26
21,22,46,162,358,126,40,24
19,23,48,114,313,120,38,23
18,22,45,145,334,106,37,21
19,23,43,160,327,107,38,23
20,26,45,168,325,129,39,25
22,28,47,169,340,152,41,27
22,26,43,167,352,155,48,27
23,27,43,144,294,151,48,27
22,26,43,133,280,148,46,25
21,22,43,141,307,134,42,26
21,22,46,162,358,126,40,24
21,26,45,159,390,120,30,23
21,26,48,162,359,120,34,26
20,25,47,172,364,123,35,27
22,28,51,160,337,139,36,27
21,27,48,175,280,152,36,29
21,23,46,176,258,149,36,28
20,24,41,168,259,149,33,26
21,23,41,179,268,146,32,26
20,22,40,183,272,172,34,24
21,24,41,165,285,148,35,23
24,25,43,172,269,170,34,23
23,24,43,177,279,175,32,22
24,25,41,152,253,179,37,21
23,24,36,143,269,139,34,20
23,24,47,142,279,135,32,18
19,24,46,129,289,108,34,19
22,24,45,160,303,108,34,19
21,26,46,165,310,118,31,19
23,26,50,166,305,116,32,23
24,28,42,156,265,121,33,24
24,25,43,172,269,170,34,23
23,24,43,177,279,175,32,22
24,25,41,152,253,179,37,21
23,24,36,143,269,139,34,20
23,24,47,142,279,135,32,18
19,24,46,129,289,108,34,19
22,24,45,160,303,108,34,19
21,26,46,165,310,118,31,19
23,26,50,166,305,116,32,23
24,28,42,156,265,121,33,24
25,26,45,168,241,116,31,23
24,29,46,139,260,116,31,24
23,26,46,126,265,113,29,22
22,27,43,132,263,127,28,22
23,24,44,157,268,129,30,25
22,25,44,153,315,156,33,25
21,22,42,150,285,158,33,24
20,24,46,151,264,155,33,25
20,25,47,161,250,150,31,23
16,25,44,167,284,147,28,19
20,27,42,159,243,133,25,21
19,27,40,162,242,132,26,21
21,27,37,161,268,167,27,20
21,25,31,144,272,159,28,21
21,25,36,124,229,156,32,21
20,21,35,132,255,151,32,21
20,21,36,134,253,165,30,23
20,21,38,149,259,133,31,22
20,22,43,155,258,140,30,21
20,22,41,136,295,138,27,23
20,27,42,159,243,133,25,21
19,27,40,162,242,132,26,21
21,27,37,161,268,167,27,20
21,25,31,144,272,159,28,21
21,25,36,124,229,156,32,21
20,21,35,132,255,151,32,21
20,21,36,134,253,165,30,23
20,21,38,149,259,133,31,22
20,22,43,155,258,140,30,21
20,22,41,136,295,138,27,23
19,23,43,131,254,130,30,19
19,23,43,132,250,109,32,19
18,24,45,110,219,89,32,20
25,30,45,100,221,102,34,28
26,33,47,119,218,102,36,29
28,36,55,120,214,101,36,32
28,37,56,139,286,99,34,31
29,35,53,148,305,127,34,31
24,32,54,167,353,129,32,25
24,32,49,154,332,135,30,23
23,29,39,150,333,150,28,21
23,27,39,128,270,158,34,21
22,28,38,123,254,162,42,23
22,27,39,111,198,159,43,23
21,28,43,127,234,154,46,27
19,27,47,160,280,143,44,25
20,28,49,166,300,130,41,26
20,29,49,178,302,104,32,24
19,26,47,184,318,116,35,25
20,22,48,180,293,119,33,21
23,29,39,150,333,150,28,21
23,27,39,128,270,158,34,21
22,28,38,123,254,162,42,23
22,27,39,111,198,159,43,23
21,28,43,127,234,154,46,27
19,27,47,160,280,143,44,25
20,28,49,166,300,130,41,26
20,29,49,178,302,104,32,24
19,26,47,184,318,116,35,25
20,22,48,180,293,119,33,21
21,25,48,161,255,128,33,21
21,26,48,156,262,138,35,24
22,26,49,142,285,135,36,23
21,27,46,124,266,121,36,22
21,27,45,122,260,124,36,23
20,23,42,131,279,111,36,24
21,22,40,149,343,112,33,21
21,23,41,163,338,115,35,20
23,27,48,168,352,129,32,23
25,28,45,182,378,133,36,23
26,30,47,184,380,137,38,24
25,29,45,177,320,130,38,24
25,30,47,168,303,145,36,24
24,27,40,184,288,133,36,21
21,26,41,175,334,132,34,22
22,24,41,162,332,132,33,23
20,23,39,160,425,132,38,23
21,20,37,165,427,113,39,24
20,21,39,141,421,113,38,25
23,26,43,133,379,117,37,26
26,30,47,184,380,137,38,24
25,29,45,177,320,130,38,24
25,30,47,168,303,145,36,24
24,27,40,184,288,133,36,21
21,26,41,175,334,132,34,22
22,24,41,162,332,132,33,23
20,23,39,160,425,132,38,23
21,20,37,165,427,113,39,24
20,21,39,141,421,113,38,25
23,26,43,133,379,117,37,26
24,27,43,129,369,136,37,23
25,28,47,125,242,129,33,23
25,28,45,112,267,133,29,24
25,29,49,144,290,139,29,22
23,28,45,150,276,135,28,19
21,26,44,154,303,122,33,22
22,25,43,158,318,131,34,22
22,28,46,163,324,134,36,23
20,24,43,150,304,132,38,24
21,24,42,151,307,135,39,23
21,25,48,155,306,136,36,23
19,28,49,161,290,142,35,23
19,26,47,160,283,146,34,23
21,26,46,151,289,135,36,23
20,24,50,141,298,133,36,23
21,26,50,136,291,142,34,21
20,27,54,119,311,140,36,22
20,27,62,179,309,138,35,21
22,30,66,191,309,140,34,23
23,30,69,203,287,133,34,24
21,25,48,155,306,136,36,23
19,28,49,161,290,142,35,23
19,26,47,160,283,146,34,23
21,26,46,151,289,135,36,23
20,24,50,141,298,133,36,23
21,26,50,136,291,142,34,21
20,27,54,119,311,140,36,22
20,27,62,179,309,138,35,21
22,30,66,191,309,140,34,23
23,30,69,203,287,133,34,24
22,28,66,205,297,130,34,25
24,28,68,245,309,125,34,25
27,29,62,203,288,169,36,26
24,26,58,215,347,169,34,24
24,25,54,214,358,173,32,24
24,27,55,211,332,168,36,25
23,25,45,166,294,161,34,24
22,23,41,185,339,111,37,23
23,25,42,173,282,109,38,22
24,27,48,164,280,126,42,23
22,25,45,174,272,124,40,22
22,25,49,222,265,160,44,22
20,26,50,203,255,157,43,21
19,25,48,196,251,152,42,21
18,23,42,194,232,138,42,21
19,23,43,191,249,161,41,22
20,25,44,144,274,153,40,22
19,23,47,156,256,153,41,22
20,22,47,142,237,159,42,23
19,22,47,147,267,161,38,20
22,25,45,174,272,124,40,22
22,25,49,222,265,160,44,22
20,26,50,203,255,157,43,21
19,25,48,196,251,152,42,21
18,23,42,194,232,138,42,21
19,23,43,191,249,161,41,22
20,25,44,144,274,153,40,22
19,23,47,156,256,153,41,22
20,22,47,142,237,159,42,23
19,22,47,147,267,161,38,20
22,24,42,157,269,153,39,21
23,21,41,148,263,152,38,20
24,22,38,135,252,156,38,21
23,24,43,145,270,153,37,21
24,24,44,147,268,164,42,22
23,24,49,180,291,166,44,22
23,24,51,213,319,145,43,22
23,26,53,230,313,145,43,24
23,27,51,235,300,143,42,24
24,28,52,233,297,135,43,24
25,31,59,224,300,124,42,26
30,43,81,245,272,130,42,28
32,48,95,394,314,164,43,30
40,59,113,501,339,179,55,38
43,61,117,582,345,171,57,41
42,63,119,616,394,164,55,42
39,57,106,640,440,167,59,43
39,57,104,572,493,139,59,41
40,55,112,517,536,136,51,41
39,63,130,519,551,164,47,40
114,83,137,559,554,173,34,35
278,96,124,548,494,108,36,44
363,109,104,456,426,63,38,65
396,110,107,477,349,58,37,72
417,111,101,448,289,124,42,74
517,115,105,577,326,147,47,96
519,103,102,556,378,159,53,106
549,106,104,564,400,168,56,125
548,112,102,664,428,172,145,128
628,114,108,694,451,174,152,137
563,117,102,576,431,160,156,128
509,126,104,584,389,148,155,117
433,111,103,604,407,143,155,90
511,113,100,475,385,138,83,91
472,119,93,403,347,86,68,80
449,112,100,499,384,152,56,70
461,106,92,467,374,163,50,73
446,109,86,423,325,164,42,65
331,96,74,404,324,164,32,57
211,82,67,370,301,161,30,49
211,70,50,214,231,92,25,50
169,57,54,241,218,64,24,44
184,43,53,250,212,49,21,46
170,46,52,232,169,40,17,33
164,44,51,222,163,32,15,34
160,40,44,202,118,27,15,36
153,45,37,146,251,28,16,35
129,50,71,198,360,32,17,31
111,47,78,262,397,33,17,30
123,48,79,264,403,32,18,28
211,70,50,214,231,92,25,50
169,57,54,241,218,64,24,44
184,43,53,250,212,49,21,46
170,46,52,232,169,40,17,33
164,44,51,222,163,32,15,34
160,40,44,202,118,27,15,36
153,45,37,146,251,28,16,35
129,50,71,198,360,32,17,31
111,47,78,262,397,33,17,30
123,48,79,264,403,32,18,28
150,47,79,261,404,32,20,30
154,43,77,250,356,31,20,31
161,37,49,197,288,27,19,32
161,35,34,105,289,28,21,32
139,34,34,97,333,27,21,33
136,38,36,102,348,26,20,28
137,33,38,107,378,27,19,30
145,31,43,169,392,28,20,31
170,37,46,183,368,27,19,33
174,40,46,185,330,28,18,33
157,38,44,189,341,30,17,32
158,39,56,271,296,30,16,28
148,39,54,275,240,28,16,25
114,39,56,343,244,31,16,23
133,39,56,349,239,30,17,23
122,39,61,375,235,33,20,23
110,38,52,342,244,31,20,21
107,39,47,339,270,33,20,21
115,36,42,264,249,29,21,22
86,36,47,261,280,29,21,22
157,38,44,189,341,30,17,32
158,39,56,271,296,30,16,28
148,39,54,275,240,28,16,25
114,39,56,343,244,31,16,23
133,39,56,349,239,30,17,23
122,39,61,375,235,33,20,23
110,38,52,342,244,31,20,21
107,39,47,339,270,33,20,21
115,36,42,264,249,29,21,22
86,36,47,261,280,29,21,22
80,43,45,237,268,25,17,23
78,44,51,209,272,25,18,23
77,52,57,191,263,22,20,23
76,56,63,191,273,24,19,24
69,54,58,194,254,25,20,22
75,49,55,182,252,27,21,18
77,49,49,187,265,29,20,21
83,38,41,153,292,29,19,23
74,33,36,137,296,27,18,21
71,32,41,132,320,29,18,22
66,30,49,137,311,28,19,23
73,33,49,136,347,27,18,21
81,42,55,137,348,26,18,27
102,42,60,161,339,26,19,30
104,42,56,160,353,25,18,30
106,44,51,170,350,24,16,31
103,41,50,192,302,28,17,32
92,33,44,211,262,33,17,27
65,31,37,200,308,36,16,25
63,32,39,201,261,36,16,23
66,30,49,137,311,28,19,23
73,33,49,136,347,27,18,21
81,42,55,137,348,26,18,27
102,42,60,161,339,26,19,30
104,42,56,160,353,25,18,30
106,44,51,170,350,24,16,31
103,41,50,192,302,28,17,32
92,33,44,211,262,33,17,27
65,31,37,200,308,36,16,25
63,32,39,201,261,36,16,23
55,33,43,225,272,36,16,21
72,33,47,208,277,33,15,20
72,34,46,196,272,29,14,19
86,36,45,192,221,26,15,20
99,34,43,183,223,24,16,24
101,33,37,139,244,25,17,25
84,35,35,139,275,28,18,24
84,32,42,127,278,26,18,23
82,30,41,123,271,26,18,22
97,35,44,138,258,27,17,20
99,34,45,166,232,29,18,19
102,32,53,172,167,28,19,22
109,35,51,175,171,35,21,22
102,33,53,183,179,38,22,22
72,31,51,177,201,38,22,23
66,32,53,172,191,39,21,24
75,33,43,190,186,39,20,25
82,32,41,196,167,33,18,26
83,33,39,199,282,32,18,27
87,31,38,196,272,32,18,27
99,34,45,166,232,29,18,19
102,32,53,172,167,28,19,22
109,35,51,175,171,35,21,22
102,33,53,183,179,38,22,22
72,31,51,177,201,38,22,23
66,32,53,172,191,39,21,24
75,33,43,190,186,39,20,25
82,32,41,196,167,33,18,26
83,33,39,199,282,32,18,27
87,31,38,196,272,32,18,27
92,33,35,164,272,28,18,26
89,34,33,134,272,26,18,24
84,33,33,126,308,27,18,23
85,33,35,143,293,24,17,21
84,36,39,164,316,24,17,21
81,38,37,195,317,25,16,21
84,36,39,200,327,25,15,20
93,37,40,195,311,25,15,23
95,41,42,214,259,26,15,25
92,37,40,203,237,29,15,25
96,33,48,176,228,28,16,25
94,36,44,164,262,29,17,27
75,36,45,178,260,29,20,23
67,35,42,130,253,31,21,22
98,40,44,174,271,29,22,24
105,40,42,206,291,31,21,27
97,39,46,221,257,33,23,24
99,41,48,217,251,34,20,25
99,40,49,229,251,32,19,25
75,36,48,207,274,33,18,25
96,33,48,176,228,28,16,25
94,36,44,164,262,29,17,27
75,36,45,178,260,29,20,23
67,35,42,130,253,31,21,22
98,40,44,174,271,29,22,24
105,40,42,206,291,31,21,27
97,39,46,221,257,33,23,24
99,41,48,217,251,34,20,25
99,40,49,229,251,32,19,25
75,36,48,207,274,33,18,25
60,36,43,187,260,30,20,23
63,35,41,163,256,28,20,29
56,31,37,163,252,27,20,29
65,28,42,155,250,29,20,30
65,27,45,141,186,27,20,28
80,30,51,168,201,30,19,31
78,31,52,186,212,29,17,28
84,29,54,191,206,31,16,29
81,30,51,194,193,29,15,29
92,33,48,195,245,30,15,29
87,33,46,157,243,30,15,26
96,31,43,135,284,29,15,25
94,31,39,115,285,27,16,24
101,41,37,97,286,27,17,25
87,38,36,103,247,25,18,24
77,37,31,106,229,23,19,22
72,37,31,105,150,23,19,20
74,37,33,136,288,27,17,20
83,25,36,141,301,29,18,23
86,27,36,146,327,27,16,24
87,33,46,157,243,30,15,26
96,31,43,135,284,29,15,25
94,31,39,115,285,27,16,24
101,41,37,97,286,27,17,25
87,38,36,103,247,25,18,24
77,37,31,106,229,23,19,22
72,37,31,105,150,23,19,20
74,37,33,136,288,27,17,20
83,25,36,141,301,29,18,23
86,27,36,146,327,27,16,24
95,26,38,147,337,27,15,28
94,31,48,155,349,27,16,28
91,34,51,135,295,25,17,28
68,37,50,130,338,28,16,25
66,36,51,119,328,29,17,23
53,37,52,124,320,29,17,19
44,37,46,112,307,29,17,20
51,35,41,117,268,27,16,21
52,32,40,138,206,20,16,21
54,32,47,180,218,22,17,23
54,30,45,176,246,22,18,23
54,26,44,178,250,27,18,22
89,28,44,180,280,29,19,25
92,30,44,194,274,29,19,25
89,31,38,149,239,31,19,24
90,32,38,164,236,32,20,24
90,32,38,186,252,30,23,24
48,30,40,189,210,28,22,19
42,28,39,172,197,31,22,18
52,29,38,204,264,33,22,18
54,30,45,176,246,22,18,23
54,26,44,178,250,27,18,22
89,28,44,180,280,29,19,25
92,30,44,194,274,29,19,25
89,31,38,149,239,31,19,24
90,32,38,164,236,32,20,24
90,32,38,186,252,30,23,24
48,30,40,189,210,28,22,19
42,28,39,172,197,31,22,18
52,29,38,204,264,33,22,18
51,28,37,195,254,34,20,17
58,27,37,174,245,32,15,19
57,27,35,179,263,33,17,20
58,28,37,180,292,31,17,20
58,30,40,145,274,25,16,18
56,29,41,138,308,24,14,19
51,29,41,146,295,24,16,18
52,30,42,126,301,23,15,18
62,33,43,104,285,23,16,20
51,30,37,117,250,24,17,20
51,31,39,120,209,25,20,20
49,33,43,122,260,27,21,19
48,34,44,146,255,25,21,20
33,31,46,147,241,25,21,19
29,29,49,145,254,25,21,19
29,33,50,147,255,22,20,19
64,36,47,149,239,26,18,20
66,37,48,134,219,26,21,19
67,40,45,131,225,26,21,18
68,40,41,122,228,29,21,20
51,31,39,120,209,25,20,20
49,33,43,122,260,27,21,19
48,34,44,146,255,25,21,20
33,31,46,147,241,25,21,19
29,29,49,145,254,25,21,19
29,33,50,147,255,22,20,19
64,36,47,149,239,26,18,20
66,37,48,134,219,26,21,19
67,40,45,131,225,26,21,18
68,40,41,122,228,29,21,20
70,39,37,143,284,30,24,19
41,34,36,131,266,27,25,21
37,33,35,134,267,27,22,21
34,29,35,147,307,30,23,22
34,32,37,148,320,28,23,20
31,36,40,148,260,28,20,21
30,36,38,147,264,27,20,19
31,36,40,138,275,28,21,21
30,36,44,133,264,28,20,21
46,40,51,144,250,27,21,23
49,33,48,121,254,27,20,22
49,33,51,114,260,28,23,22
51,35,50,113,243,27,22,21
52,36,53,110,203,25,23,21
55,33,47,95,250,30,23,20
61,36,48,92,251,29,24,21
62,37,50,144,261,29,21,24
66,38,50,153,262,30,23,24
66,39,43,147,263,31,22,24
66,38,45,144,225,26,22,23
49,33,48,121,254,27,20,22
49,33,51,114,260,28,23,22
51,35,50,113,243,27,22,21
52,36,53,110,203,25,23,21
55,33,47,95,250,30,23,20
61,36,48,92,251,29,24,21
62,37,50,144,261,29,21,24
66,38,50,153,262,30,23,24
66,39,43,147,263,31,22,24
66,38,45,144,225,26,22,23
59,36,46,148,244,26,19,22
57,34,40,97,217,26,18,18
53,33,43,89,220,24,15,17
55,30,42,102,238,25,14,17
53,31,37,111,248,23,15,19
51,33,35,111,255,24,16,18
54,35,36,121,297,23,17,20
53,34,33,125,295,25,17,20
49,34,38,115,273,24,18,19
33,34,41,109,261,24,18,20
54,35,41,106,233,27,18,21
60,37,41,111,177,30,17,20
60,36,38,104,194,28,17,20
60,38,37,102,206,27,18,20
62,39,31,100,223,29,18,19
64,38,34,110,242,29,19,21
59,34,38,99,236,26,20,23
60,37,40,114,235,28,20,23
60,37,40,151,262,29,19,24
59,35,44,164,228,29,20,25
54,35,41,106,233,27,18,21
60,37,41,111,177,30,17,20
60,36,38,104,194,28,17,20
60,38,37,102,206,27,18,20
62,39,31,100,223,29,18,19
64,38,34,110,242,29,19,21
59,34,38,99,236,26,20,23
60,37,40,114,235,28,20,23
60,37,40,151,262,29,19,24
59,35,44,164,228,29,20,25
35,37,49,167,274,29,20,24
29,37,48,196,280,36,19,22
26,33,49,187,295,58,19,23
27,33,47,159,267,61,20,22
26,36,46,146,286,63,18,19
25,32,43,175,221,62,19,20
27,31,43,148,232,67,21,21
26,33,46,184,240,53,23,20
24,34,49,192,242,49,22,20
22,32,48,191,221,46,23,24
22,33,48,205,222,47,23,21
19,34,50,242,220,35,20,20
19,34,48,246,224,32,18,20
22,37,48,275,244,41,20,20
22,35,49,283,243,42,21,17
22,37,51,276,248,56,19,18
23,36,56,372,364,74,19,19
24,37,61,476,398,74,23,23
23,33,65,520,408,73,22,22
22,36,80,553,435,74,24,22
22,33,48,205,222,47,23,21
19,34,50,242,220,35,20,20
19,34,48,246,224,32,18,20
22,37,48,275,244,41,20,20
22,35,49,283,243,42,21,17
22,37,51,276,248,56,19,18
23,36,56,372,364,74,19,19
24,37,61,476,398,74,23,23
23,33,65,520,408,73,22,22
22,36,80,553,435,74,24,22
23,40,92,634,480,66,27,23
26,47,106,594,418,72,35,25
33,52,107,617,411,109,36,26
35,54,108,606,428,117,44,32
36,55,101,643,443,117,45,33
37,55,104,619,461,119,49,34
38,53,104,741,494,112,45,37
36,49,104,737,527,90,44,39
34,49,108,930,737,93,39,37
44,60,138,1020,766,103,43,39
54,71,149,1029,765,110,40,40
56,75,158,1150,780,128,43,37
63,92,182,1235,820,129,50,42
72,114,247,1170,667,135,64,54
68,112,255,1143,631,150,64,54
78,128,330,1204,635,177,74,61
87,144,399,1108,658,177,83,71
89,145,401,1003,627,195,95,78
100,154,389,928,637,196,109,92
107,159,399,967,741,182,110,94
323,71,92,426,326,105,35,63
344,69,78,405,346,126,34,63
350,78,93,378,376,124,32,52
306,73,91,330,417,126,31,48
315,73,83,368,412,130,34,50
301,71,80,418,356,126,36,51
321,71,99,551,419,105,35,58
325,59,90,641,407,127,35,64
328,69,90,634,370,126,35,67
304,77,87,611,370,123,34,68
299,77,88,599,376,114,33,67
273,81,81,554,300,122,34,66
278,80,80,452,289,97,34,63
283,71,82,460,308,104,33,62
313,95,94,466,310,105,33,61
323,100,104,484,329,101,32,70
301,104,98,430,302,78,32,61
254,105,102,488,405,77,29,55
296,121,109,529,400,77,31,50
272,96,104,512,418,96,30,47
323,110,93,473,391,100,31,50
325,105,91,445,400,100,28,51
325,107,96,383,332,99,32,52
274,92,94,435,377,88,29,53
271,90,96,561,470,59,31,56
237,71,96,548,477,49,32,46
351,81,94,551,464,45,34,63
427,87,79,566,449,38,32,66
437,93,74,511,454,63,36,71
444,100,69,359,344,62,33,72
323,110,93,473,391,100,31,50
325,105,91,445,400,100,28,51
325,107,96,383,332,99,32,52
274,92,94,435,377,88,29,53
271,90,96,561,470,59,31,56
237,71,96,548,477,49,32,46
351,81,94,551,464,45,34,63
427,87,79,566,449,38,32,66
437,93,74,511,454,63,36,71
444,100,69,359,344,62,33,72
427,94,67,368,334,64,30,71
377,91,67,369,352,65,28,61
295,83,69,311,341,63,27,58
313,75,70,273,256,39,24,54
300,69,67,327,310,40,25,51
285,65,67,354,354,36,27,50
233,61,67,336,334,44,27,43
234,59,64,384,342,43,27,41
185,56,60,368,373,41,25,38
234,56,59,348,330,39,28,41
242,59,57,353,294,41,29,43
266,62,59,377,368,31,28,56
269,61,55,332,362,31,27,58
284,63,63,360,360,35,27,60
244,57,61,347,348,40,27,58
245,54,60,322,338,38,24,57
241,52,62,318,292,40,26,43
238,63,62,321,293,41,29,44
234,67,55,314,300,42,30,44
236,72,57,299,304,38,27,46
242,59,57,353,294,41,29,43
266,62,59,377,368,31,28,56
269,61,55,332,362,31,27,58
284,63,63,360,360,35,27,60
244,57,61,347,348,40,27,58
245,54,60,322,338,38,24,57
241,52,62,318,292,40,26,43
238,63,62,321,293,41,29,44
234,67,55,314,300,42,30,44
236,72,57,299,304,38,27,46
258,81,56,278,309,42,28,44
251,80,47,244,272,40,29,49
280,74,48,253,266,39,27,57
268,68,52,227,242,36,26,55
280,69,46,207,226,35,26,58
259,61,56,284,216,30,25,58
248,56,64,285,221,30,24,57
207,51,66,265,212,33,27,52
226,55,60,254,208,33,28,52
204,49,61,265,228,38,28,48
208,46,54,206,281,38,30,47
206,45,46,214,290,40,33,45
197,45,42,259,299,37,30,39
179,39,47,273,317,38,28,41
199,51,65,387,306,37,28,42
201,52,65,388,294,39,26,42
182,53,70,393,297,40,23,40
190,55,77,404,298,41,26,41
205,56,77,405,257,39,27,38
209,49,63,292,260,35,26,38
208,46,54,206,281,38,30,47
206,45,46,214,290,40,33,45
197,45,42,259,299,37,30,39
179,39,47,273,317,38,28,41
199,51,65,387,306,37,28,42
201,52,65,388,294,39,26,42
182,53,70,393,297,40,23,40
190,55,77,404,298,41,26,41
205,56,77,405,257,39,27,38
209,49,63,292,260,35,26,38
189,47,68,318,225,35,26,36
233,54,67,320,228,40,24,40
230,53,60,301,204,41,21,37
229,51,68,371,206,44,24,39
223,48,72,421,218,44,25,38
229,53,66,411,220,44,27,39
192,55,70,428,210,42,28,38
201,58,70,417,225,44,31,42
206,63,65,355,236,45,32,44
196,63,61,298,225,45,33,44
191,59,64,275,217,42,32,44
194,52,56,242,210,39,30,41
193,48,56,243,247,38,27,38
216,53,51,240,230,37,26,38
252,63,64,283,270,38,23,41
268,69,66,324,299,38,25,43
271,70,68,339,294,40,26,44
270,72,67,335,294,35,26,43
233,63,72,431,347,40,26,43
196,57,60,426,320,39,27,39
191,59,64,275,217,42,32,44
194,52,56,242,210,39,30,41
193,48,56,243,247,38,27,38
216,53,51,240,230,37,26,38
252,63,64,283,270,38,23,41
268,69,66,324,299,38,25,43
271,70,68,339,294,40,26,44
270,72,67,335,294,35,26,43
233,63,72,431,347,40,26,43
196,57,60,426,320,39,27,39
185,48,54,385,291,38,28,38
182,52,50,381,291,39,28,40
172,52,54,422,248,40,28,41
189,53,52,320,269,32,27,42
174,49,55,310,279,32,28,42
165,61,61,342,295,35,24,42
157,54,62,338,288,31,24,39
194,57,56,266,295,31,24,40
169,57,56,270,210,30,26,39
188,62,59,286,191,33,24,42
183,52,57,259,168,33,27,41
179,52,59,292,220,37,27,41
154,45,61,338,263,41,28,39
156,44,57,334,288,43,25,37
164,43,51,307,287,40,25,34
167,43,46,296,319,39,22,35
184,49,47,262,304,37,23,35
207,57,53,287,272,30,20,35
214,55,54,303,247,29,20,35
203,54,56,294,305,36,22,34
183,52,57,259,168,33,27,41
179,52,59,292,220,37,27,41
154,45,61,338,263,41,28,39
156,44,57,334,288,43,25,37
164,43,51,307,287,40,25,34
167,43,46,296,319,39,22,35
184,49,47,262,304,37,23,35
207,57,53,287,272,30,20,35
214,55,54,303,247,29,20,35
203,54,56,294,305,36,22,34
215,57,57,347,279,37,24,33
210,55,61,378,285,36,28,34
178,50,56,319,297,35,29,34
170,51,58,322,297,34,28,32
157,59,74,362,245,29,26,32
137,59,80,323,232,27,26,32
134,60,77,302,196,35,25,31
125,57,77,338,168,36,27,32
130,57,74,318,182,37,29,32
148,47,58,308,186,38,29,33
152,47,50,301,182,37,27,34
138,43,50,271,186,31,23,34
158,47,45,256,176,30,22,30
148,46,45,262,147,37,22,29
145,43,49,248,105,37,25,28
138,38,54,301,156,35,25,24
148,43,52,298,164,34,25,28
123,45,53,265,170,34,24,29
132,48,52,278,194,26,23,30
127,48,47,260,198,22,22,29
152,47,50,301,182,37,27,34
138,43,50,271,186,31,23,34
158,47,45,256,176,30,22,30
148,46,45,262,147,37,22,29
145,43,49,248,105,37,25,28
138,38,54,301,156,35,25,24
148,43,52,298,164,34,25,28
123,45,53,265,170,34,24,29
132,48,52,278,194,26,23,30
127,48,47,260,198,22,22,29
134,48,39,192,163,26,21,30
131,43,37,186,172,26,21,27
121,36,37,184,179,26,20,25
106,32,37,145,166,27,19,25
91,31,37,102,158,25,15,24
78,32,36,80,159,23,15,21
58,35,51,85,215,25,17,17
88,42,59,99,268,27,18,20
145,47,68,172,284,28,19,31
149,53,76,215,283,31,25,33
155,60,77,251,292,32,26,35
161,64,77,283,249,31,25,39
172,59,75,289,205,29,25,41
149,57,71,267,184,30,26,35
145,54,63,278,192,30,24,38
141,48,68,317,213,32,24,36
154,45,62,302,210,39,26,36
167,50,59,306,201,44,26,36
166,53,56,302,210,42,26,39
176,52,54,307,209,42,27,36
155,60,77,251,292,32,26,35
161,64,77,283,249,31,25,39
172,59,75,289,205,29,25,41
149,57,71,267,184,30,26,35
145,54,63,278,192,30,24,38
141,48,68,317,213,32,24,36
154,45,62,302,210,39,26,36
167,50,59,306,201,44,26,36
166,53,56,302,210,42,26,39
176,52,54,307,209,42,27,36
180,51,55,251,172,39,26,36
166,45,52,253,205,36,26,35
130,39,50,250,201,32,25,31
121,37,52,302,250,35,26,27
109,38,56,281,267,33,23,29
100,38,52,291,319,36,24,28
154,47,53,282,336,35,23,29
160,51,52,279,345,33,24,30
155,52,50,231,321,34,21,31
168,53,45,252,310,35,23,31
168,52,47,250,297,34,24,33
128,46,50,265,258,36,23,33
131,53,52,279,263,35,23,31
135,52,55,276,240,31,23,31
148,51,58,279,235,30,21,33
164,56,53,286,236,38,21,31
172,59,56,271,242,36,24,31
186,54,54,265,248,38,25,37
221,58,50,259,256,37,25,45
213,57,47,219,274,38,24,45
168,52,47,250,297,34,24,33
128,46,50,265,258,36,23,33
131,53,52,279,263,35,23,31
135,52,55,276,240,31,23,31
148,51,58,279,235,30,21,33
164,56,53,286,236,38,21,31
172,59,56,271,242,36,24,31
186,54,54,265,248,38,25,37
221,58,50,259,256,37,25,45
213,57,47,219,274,38,24,45
218,54,48,203,249,31,23,46
214,52,49,244,250,31,21,47
200,48,52,237,230,29,20,46
177,41,55,252,238,35,22,40
165,42,62,257,290,38,22,38
144,44,63,285,274,37,23,37
136,42,57,261,272,38,26,34
160,51,59,267,267,39,27,34
143,52,69,290,277,34,26,33
149,52,65,305,227,33,26,35
152,48,65,267,248,34,28,34
158,48,67,270,248,32,24,35
133,43,66,270,267,30,23,34
124,40,53,224,237,31,22,31
111,38,54,213,206,33,25,30
101,38,56,214,224,32,22,31
106,37,52,247,246,34,21,29
112,30,50,245,223,35,22,28
141,29,59,265,230,35,23,32
144,31,63,277,231,29,20,30
152,48,65,267,248,34,28,34
158,48,67,270,248,32,24,35
133,43,66,270,267,30,23,34
124,40,53,224,237,31,22,31
111,38,54,213,206,33,25,30
101,38,56,214,224,32,22,31
106,37,52,247,246,34,21,29
112,30,50,245,223,35,22,28
141,29,59,265,230,35,23,32
144,31,63,277,231,29,20,30
158,35,60,282,208,28,19,29
149,38,64,249,172,23,20,28
167,49,64,261,199,22,17,33
163,50,56,238,188,21,21,29
160,49,47,211,205,28,20,31
159,50,55,255,220,30,22,33
161,48,57,288,274,33,25,34
134,37,57,305,272,35,25,29
129,41,58,327,279,35,23,35
140,42,63,354,279,32,25,35
127,45,62,329,291,31,23,32
121,46,61,310,253,30,22,33
111,48,66,293,247,30,23,32
104,48,66,278,244,30,22,29
119,51,66,270,272,30,21,30
141,50,60,255,240,34,23,32
184,58,62,280,224,33,21,35
189,57,55,260,288,32,20,35
182,54,56,252,300,33,21,33
164,51,50,251,265,33,20,32
127,45,62,329,291,31,23,32
121,46,61,310,253,30,22,33
111,48,66,293,247,30,23,32
104,48,66,278,244,30,22,29
119,51,66,270,272,30,21,30
141,50,60,255,240,34,23,32
184,58,62,280,224,33,21,35
189,57,55,260,288,32,20,35
182,54,56,252,300,33,21,33
164,51,50,251,265,33,20,32
161,51,56,254,291,31,19,32
117,41,51,266,306,33,21,30
119,38,50,304,242,33,22,33
132,40,53,322,260,32,27,32
137,48,63,351,318,33,27,31
122,44,60,350,295,30,29,31
124,43,60,317,286,27,28,30
118,45,65,329,298,26,27,27
124,46,63,320,289,27,24,28
122,38,63,273,257,29,26,29
126,37,68,388,279,28,25,27
144,46,72,382,271,30,25,31
147,46,68,344,249,30,24,30
140,43,64,368,231,28,22,30
150,40,54,380,236,27,20,30
142,42,53,296,204,25,19,30
117,31,47,333,222,29,20,26
134,34,50,332,239,30,21,31
129,38,51,314,243,30,22,34
129,41,50,289,247,29,20,37
126,37,68,388,279,28,25,27
144,46,72,382,271,30,25,31
147,46,68,344,249,30,24,30
140,43,64,368,231,28,22,30
150,40,54,380,236,27,20,30
142,42,53,296,204,25,19,30
117,31,47,333,222,29,20,26
134,34,50,332,239,30,21,31
129,38,51,314,243,30,22,34
129,41,50,289,247,29,20,37
133,40,57,278,291,32,23,35
136,42,56,246,319,27,24,34
127,41,58,245,312,29,23,34
124,42,60,330,303,30,22,32
129,41,60,336,312,32,21,30
132,40,48,316,283,34,23,31
135,39,55,317,247,33,22,33
150,37,49,318,238,32,23,34
156,33,51,207,252,31,24,33
141,33,55,298,258,29,25,34
139,36,60,312,270,30,25,39
129,35,57,296,260,30,25,39
138,40,62,307,271,30,26,40
129,41,62,315,267,33,26,40
128,44,75,320,236,39,25,38
125,48,80,358,285,42,25,36
122,53,112,474,349,46,25,35
69,53,122,557,399,49,26,32
59,61,136,605,414,50,27,30
54,64,130,583,406,50,29,32
356,85,92,490,462,86,38,70
379,95,82,490,454,97,38,72
392,89,93,554,447,118,37,72
321,92,98,509,521,120,32,63
285,92,95,497,482,119,33,73
314,86,96,462,424,113,33,71
326,90,98,455,425,92,33,68
308,96,84,366,439,56,28,58
314,92,79,348,431,52,31,58
307,87,85,415,429,49,29,44
292,86,87,408,422,48,31,46
352,91,86,372,387,45,31,54
389,87,92,378,352,44,34,79
385,80,74,408,351,39,34,82
388,86,67,358,368,40,35,83
374,90,65,366,362,32,31,79
288,87,60,369,348,28,30,76
278,90,51,355,364,32,28,66
267,88,43,227,261,31,27,64
301,87,42,175,231,31,26,66
302,86,36,146,234,32,25,68
293,68,54,138,261,34,26,66
254,60,56,138,273,32,25,49
285,68,59,118,274,32,23,52
256,61,57,114,267,32,22,49
248,55,62,118,279,31,22,49
246,57,51,125,268,31,23,52
229,59,47,147,233,28,22,59
222,52,48,153,270,32,23,56
196,54,51,185,286,34,25,54
302,86,36,146,234,32,25,68
293,68,54,138,261,34,26,66
254,60,56,138,273,32,25,49
285,68,59,118,274,32,23,52
256,61,57,114,267,32,22,49
248,55,62,118,279,31,22,49
246,57,51,125,268,31,23,52
229,59,47,147,233,28,22,59
222,52,48,153,270,32,23,56
196,54,51,185,286,34,25,54
259,69,49,260,277,39,26,52
276,72,50,270,267,40,31,58
278,75,50,264,267,43,33,48
268,78,46,257,238,40,33,46
274,76,43,235,223,39,34,49
230,69,39,181,231,34,33,52
259,77,44,160,248,31,27,46
273,77,43,147,259,31,25,50
260,77,42,168,244,30,24,54
272,79,39,170,240,30,21,53
266,74,42,135,212,29,19,55
222,59,35,169,209,31,23,51
190,57,42,175,200,30,25,47
213,58,44,187,192,36,26,45
206,59,48,212,186,34,26,42
238,65,47,224,200,35,28,42
240,68,45,217,168,34,26,43
254,66,39,215,150,37,27,46
243,61,38,214,152,31,26,48
253,69,46,209,200,32,28,50
266,74,42,135,212,29,19,55
222,59,35,169,209,31,23,51
190,57,42,175,200,30,25,47
213,58,44,187,192,36,26,45
206,59,48,212,186,34,26,42
238,65,47,224,200,35,28,42
240,68,45,217,168,34,26,43
254,66,39,215,150,37,27,46
243,61,38,214,152,31,26,48
253,69,46,209,200,32,28,50
232,66,46,208,203,35,28,46
220,64,53,198,211,34,28,44
211,65,54,197,208,27,27,44
213,68,54,208,202,27,27,40
220,59,51,207,150,27,27,41
211,60,57,223,208,26,27,43
214,60,56,229,210,33,28,46
199,56,57,252,212,34,27,43
197,57,62,240,212,38,27,45
158,59,59,242,218,40,26,41
146,60,54,231,210,38,26,36
155,65,53,224,234,38,25,33
172,66,51,203,245,37,25,42
159,61,44,185,258,33,25,39
180,62,45,173,257,31,24,38
190,61,50,163,228,30,22,39
202,53,49,165,213,24,21,47
198,49,49,170,210,24,20,40
208,50,50,174,196,24,21,41
203,41,47,173,224,37,21,43
146,60,54,231,210,38,26,36
155,65,53,224,234,38,25,33
172,66,51,203,245,37,25,42
159,61,44,185,258,33,25,39
180,62,45,173,257,31,24,38
190,61,50,163,228,30,22,39
202,53,49,165,213,24,21,47
198,49,49,170,210,24,20,40
208,50,50,174,196,24,21,41
203,41,47,173,224,37,21,43
213,47,50,167,213,40,26,46
199,50,51,161,190,41,27,38
202,55,51,204,197,42,28,41
198,62,53,202,240,43,26,40
209,65,57,216,224,31,26,41
194,58,52,218,238,29,22,41
184,59,48,215,239,28,20,39
193,62,48,192,244,29,24,35
185,55,51,185,197,29,24,34
172,57,49,160,197,30,23,31
178,61,49,164,195,30,21,32
216,59,49,194,199,29,22,40
197,54,53,165,178,32,19,40
191,55,51,189,193,32,17,39
176,51,52,191,203,33,18,38
171,48,49,187,218,32,20,34
153,47,52,221,219,33,25,33
161,49,47,221,230,31,26,32
161,44,49,200,243,29,26,32
162,47,48,193,224,30,26,36
178,61,49,164,195,30,21,32
216,59,49,194,199,29,22,40
197,54,53,165,178,32,19,40
191,55,51,189,193,32,17,39
176,51,52,191,203,33,18,38
171,48,49,187,218,32,20,34
153,47,52,221,219,33,25,33
161,49,47,221,230,31,26,32
161,44,49,200,243,29,26,32
162,47,48,193,224,30,26,36
155,47,48,210,195,29,25,42
138,49,44,151,193,26,21,38
151,54,46,171,229,27,19,41
162,56,39,177,226,29,22,41
188,59,38,202,233,29,24,44
213,59,40,213,257,33,23,41
225,59,42,207,268,33,24,42
209,51,46,189,245,37,24,40
224,53,49,185,228,38,22,41
215,50,48,163,232,39,23,37
212,46,56,152,197,37,23,33
196,46,64,198,204,39,22,33
202,47,62,213,246,33,22,31
220,48,60,223,275,30,22,37
216,46,60,231,286,29,21,33
218,48,50,213,306,30,22,36
249,50,40,164,311,30,25,41
258,55,36,166,281,29,25,43
225,52,37,164,305,32,25,40
221,51,43,197,289,30,23,40
212,46,56,152,197,37,23,33
196,46,64,198,204,39,22,33
202,47,62,213,246,33,22,31
220,48,60,223,275,30,22,37
216,46,60,231,286,29,21,33
218,48,50,213,306,30,22,36
249,50,40,164,311,30,25,41
258,55,36,166,281,29,25,43
225,52,37,164,305,32,25,40
221,51,43,197,289,30,23,40
230,54,59,214,285,29,22,47
211,58,60,225,270,30,21,41
200,54,58,215,273,41,21,40
209,57,57,209,215,39,23,39
204,58,52,193,219,40,25,41
169,52,30,212,233,44,25,30
160,50,28,201,235,41,25,33
160,51,29,200,224,32,25,34
147,44,34,220,225,33,25,36
166,45,40,207,247,39,24,36
164,48,41,158,233,35,24,36
161,43,40,160,230,37,23,35
199,48,45,201,226,36,23,41
206,51,46,180,228,36,23,38
203,52,46,182,198,31,23,39
205,50,48,209,216,31,21,40
203,50,55,229,228,32,24,41
161,41,55,200,213,35,25,34
197,43,56,216,227,34,24,40
225,50,56,221,226,34,23,41
164,48,41,158,233,35,24,36
161,43,40,160,230,37,23,35
199,48,45,201,226,36,23,41
206,51,46,180,228,36,23,38
203,52,46,182,198,31,23,39
205,50,48,209,216,31,21,40
203,50,55,229,228,32,24,41
161,41,55,200,213,35,25,34
197,43,56,216,227,34,24,40
225,50,56,221,226,34,23,41
225,53,56,206,195,35,23,39
235,55,52,185,176,34,21,40
239,55,52,209,211,33,21,40
220,59,50,197,223,33,21,36
194,54,52,203,251,32,22,35
211,55,53,218,252,41,23,38
195,53,49,230,261,40,22,34
197,58,46,205,268,39,23,35
176,51,46,203,244,40,23,33
168,50,41,215,233,41,24,31
151,46,43,197,218,34,22,29
152,47,47,192,222,36,22,32
161,42,45,197,215,37,20,33
171,48,47,191,254,37,18,34
163,44,46,172,266,35,17,38
148,44,43,171,270,31,22,37
162,50,46,169,254,29,23,34
150,48,45,171,296,28,23,35
157,44,48,192,263,33,24,38
164,47,47,182,240,36,24,39
151,46,43,197,218,34,22,29
152,47,47,192,222,36,22,32
161,42,45,197,215,37,20,33
171,48,47,191,254,37,18,34
163,44,46,172,266,35,17,38
148,44,43,171,270,31,22,37
162,50,46,169,254,29,23,34
150,48,45,171,296,28,23,35
157,44,48,192,263,33,24,38
164,47,47,182,240,36,24,39
165,53,52,190,235,37,22,39
153,50,50,199,279,37,22,40
153,51,49,193,204,38,24,38
141,53,43,177,221,32,25,35
143,55,48,222,220,33,25,31
148,50,45,228,239,34,24,31
159,45,41,215,216,40,25,36
156,44,42,218,284,39,22,35
149,40,45,216,274,41,21,36
173,39,42,169,283,39,20,35
173,38,42,146,273,38,22,36
178,42,51,146,270,53,24,34
171,41,55,146,206,54,24,35
178,47,55,165,194,53,23,34
148,43,52,169,179,54,27,34
170,43,48,175,192,54,28,39
151,39,39,190,258,33,26,34
154,39,41,199,264,34,27,32
165,50,45,199,267,33,28,33
173,53,47,193,274,30,24,33
173,38,42,146,273,38,22,36
178,42,51,146,270,53,24,34
171,41,55,146,206,54,24,35
178,47,55,165,194,53,23,34
148,43,52,169,179,54,27,34
170,43,48,175,192,54,28,39
151,39,39,190,258,33,26,34
154,39,41,199,264,34,27,32
165,50,45,199,267,33,28,33
173,53,47,193,274,30,24,33
195,59,49,197,262,30,24,28
193,60,49,189,176,29,24,33
196,62,43,183,247,30,23,33
204,55,38,165,263,30,25,36
213,52,36,178,256,34,25,36
175,45,37,180,255,34,23,37
182,44,40,172,257,36,27,34
186,49,45,184,189,33,27,37
160,48,50,201,215,35,26,34
147,52,59,276,248,30,25,36
155,52,58,270,250,28,25,34
160,53,57,268,250,30,21,34
147,45,55,285,233,36,24,32
168,43,51,277,199,34,24,36
170,41,41,190,160,35,24,36
160,41,43,205,184,38,24,35
158,42,46,239,191,36,24,38
166,43,45,195,203,31,22,39
165,46,44,189,206,40,26,37
161,43,48,216,212,40,27,34
155,52,58,270,250,28,25,34
160,53,57,268,250,30,21,34
147,45,55,285,233,36,24,32
168,43,51,277,199,34,24,36
170,41,41,190,160,35,24,36
160,41,43,205,184,38,24,35
158,42,46,239,191,36,24,38
166,43,45,195,203,31,22,39
165,46,44,189,206,40,26,37
161,43,48,216,212,40,27,34
168,42,49,233,201,40,27,34
169,44,49,195,202,39,26,34
184,51,49,212,200,39,25,34
160,47,54,251,184,30,21,30
146,50,60,251,168,29,21,29
138,52,59,225,153,31,21,30
138,53,57,242,199,29,22,31
112,45,56,233,207,29,21,28
113,46,51,194,239,28,20,29
134,43,44,166,247,30,22,32
127,42,44,181,250,28,22,30
127,43,52,203,220,27,21,29
131,46,60,208,207,30,23,30
130,44,59,234,167,36,23,28
112,44,58,238,176,34,20,25
111,43,55,219,200,34,20,25
106,44,51,192,217,39,21,21
88,44,55,238,239,39,26,21
80,42,56,256,272,33,26,23
73,45,64,281,278,37,27,24
127,42,44,181,250,28,22,30
127,43,52,203,220,27,21,29
131,46,60,208,207,30,23,30
130,44,59,234,167,36,23,28
112,44,58,238,176,34,20,25
111,43,55,219,200,34,20,25
106,44,51,192,217,39,21,21
88,44,55,238,239,39,26,21
80,42,56,256,272,33,26,23
73,45,64,281,278,37,27,24
68,46,72,303,267,37,27,24
38,49,80,305,255,34,28,26
34,48,78,324,251,35,26,26
48,49,81,306,220,37,27,26
49,45,75,287,201,34,28,25
64,45,68,278,233,34,27,27
74,38,62,273,268,32,26,24
75,38,60,214,276,33,23,23
72,37,53,203,289,36,22,21
79,37,56,330,297,40,24,24
77,35,59,378,303,39,27,23
79,39,59,445,299,38,26,24
95,37,60,495,288,37,28,26
96,39,65,508,336,47,31,30
93,41,70,459,370,58,28,30
87,43,80,487,372,61,28,31
84,51,89,465,381,65,28,31
93,55,87,479,414,66,27,30
93,56,95,519,374,64,25,29
98,57,91,521,352,54,24,27
77,35,59,378,303,39,27,23
79,39,59,445,299,38,26,24
95,37,60,495,288,37,28,26
96,39,65,508,336,47,31,30
93,41,70,459,370,58,28,30
87,43,80,487,372,61,28,31
84,51,89,465,381,65,28,31
93,55,87,479,414,66,27,30
93,56,95,519,374,64,25,29
98,57,91,521,352,54,24,27
97,56,88,581,357,60,28,27
100,49,80,595,414,65,29,27
80,47,91,635,412,82,28,31
75,47,92,689,480,82,34,31
67,48,111,754,585,101,39,38
70,62,137,706,661,112,39,46
61,66,155,738,623,130,44,46
57,68,164,712,639,123,47,44
61,75,168,751,648,131,49,47
67,99,197,837,599,119,48,47
69,113,190,888,545,131,52,40
66,119,185,1038,641,123,54,41
66,122,189,1086,702,155,58,43
64,129,233,1155,792,157,62,42
61,114,207,1142,807,175,66,43
56,94,221,1162,861,182,65,47
57,93,251,1096,873,181,63,50
63,101,285,1176,899,192,70,55
65,103,299,1185,894,190,68,59
71,133,350,1198,1032,202,68,63
449,119,72,270,319,79,55,95
384,107,77,233,343,79,49,78
343,98,77,242,327,78,47,77
313,87,71,250,301,73,37,61
286,81,70,227,280,49,35,55
276,69,60,219,288,53,32,58
300,77,60,243,270,47,31,64
281,74,59,248,292,48,32,60
241,58,59,211,292,47,33,52
217,56,59,209,307,44,30,50
210,60,61,231,269,32,27,45
263,63,64,229,281,34,26,46
281,66,66,216,277,32,23,51
305,71,75,215,291,33,20,57
323,76,76,220,300,35,20,57
317,71,74,200,297,38,21,56
276,74,64,159,276,50,21,53
258,71,58,142,263,51,20,50
239,68,42,132,301,51,21,46
232,69,49,116,300,53,21,53
234,68,47,95,290,50,20,54
181,53,49,92,288,37,22,52
182,56,55,115,305,34,24,50
199,63,59,113,287,37,23,52
191,61,57,128,271,34,26,46
193,63,58,130,267,33,26,43
197,63,58,152,278,31,25,39
216,67,51,161,254,30,23,39
195,65,65,302,299,76,24,35
187,62,63,305,326,79,23,32
234,68,47,95,290,50,20,54
181,53,49,92,288,37,22,52
182,56,55,115,305,34,24,50
199,63,59,113,287,37,23,52
191,61,57,128,271,34,26,46
193,63,58,130,267,33,26,43
197,63,58,152,278,31,25,39
216,67,51,161,254,30,23,39
195,65,65,302,299,76,24,35
187,62,63,305,326,79,23,32
180,59,63,312,326,84,27,32
192,62,62,301,315,87,27,32
184,56,63,296,316,88,27,34
196,51,45,205,232,53,30,36
201,51,49,193,185,73,31,35
211,55,53,183,188,70,29,38
205,55,53,198,253,69,29,40
197,55,52,189,254,74,29,38
218,64,50,148,262,83,27,37
231,63,50,179,263,67,26,39
211,60,48,189,256,69,25,36
214,56,46,174,188,68,26,35
206,51,48,182,171,63,25,38
177,41,50,184,195,50,25,38
150,40,41,175,201,80,26,44
175,44,39,162,252,79,25,50
162,44,39,163,251,78,24,50
158,44,35,156,251,81,25,46
148,46,33,141,247,83,24,47
179,52,38,127,259,49,22,42
211,60,48,189,256,69,25,36
214,56,46,174,188,68,26,35
206,51,48,182,171,63,25,38
177,41,50,184,195,50,25,38
150,40,41,175,201,80,26,44
175,44,39,162,252,79,25,50
162,44,39,163,251,78,24,50
158,44,35,156,251,81,25,46
148,46,33,141,247,83,24,47
179,52,38,127,259,49,22,42
185,52,36,126,238,44,21,36
199,52,36,116,223,41,19,37
202,53,39,129,232,55,19,40
193,55,43,121,208,54,19,36
161,49,41,110,197,58,18,35
148,51,43,112,160,62,20,35
158,55,45,120,193,67,22,37
163,58,43,101,196,51,22,34
163,55,43,97,193,48,22,36
175,55,43,103,190,61,23,40
153,52,46,175,238,59,22,38
139,50,46,188,238,56,22,34
139,47,45,186,241,55,20,34
156,49,42,184,246,56,19,33
143,50,40,178,244,39,18,27
181,51,44,168,200,42,18,34
183,50,45,159,158,39,21,39
176,50,46,165,162,41,24,38
161,46,47,181,169,39,24,37
161,44,47,182,177,37,24,40
153,52,46,175,238,59,22,38
139,50,46,188,238,56,22,34
139,47,45,186,241,55,20,34
156,49,42,184,246,56,19,33
143,50,40,178,244,39,18,27
181,51,44,168,200,42,18,34
183,50,45,159,158,39,21,39
176,50,46,165,162,41,24,38
161,46,47,181,169,39,24,37
161,44,47,182,177,37,24,40
112,40,41,134,215,75,25,34
100,41,39,129,242,75,23,29
122,45,37,124,240,77,25,34
138,48,39,112,260,78,26,34
148,48,41,168,285,79,26,33
169,54,44,173,259,43,26,34
169,53,43,170,237,44,25,36
158,49,44,169,233,41,25,32
150,47,41,187,225,39,24,31
151,51,47,151,217,39,26,31
126,47,47,167,245,37,25,30
138,45,46,174,245,34,25,29
150,47,46,191,248,75,26,31
154,44,47,170,226,80,26,34
183,46,39,163,187,80,26,39
196,47,36,147,170,81,28,40
187,50,40,145,168,81,27,40
176,53,41,126,154,48,24,40
171,54,47,130,176,44,26,38
164,56,48,123,178,40,26,37
126,47,47,167,245,37,25,30
138,45,46,174,245,34,25,29
150,47,46,191,248,75,26,31
154,44,47,170,226,80,26,34
183,46,39,163,187,80,26,39
196,47,36,147,170,81,28,40
187,50,40,145,168,81,27,40
176,53,41,126,154,48,24,40
171,54,47,130,176,44,26,38
164,56,48,123,178,40,26,37
182,57,50,114,180,41,25,38
192,58,53,118,183,41,25,40
194,57,52,117,222,59,26,40
197,57,48,110,209,58,21,39
173,54,57,153,207,63,23,37
158,51,56,155,186,64,22,35
158,47,52,169,292,64,25,33
163,44,51,166,268,45,27,33
160,47,53,178,272,46,32,35
163,47,46,144,275,38,30,36
147,45,48,154,275,39,30,36
138,45,56,158,188,65,27,36
130,45,60,164,222,69,26,36
128,42,56,208,223,69,21,33
133,42,57,230,228,73,21,35
147,45,54,219,225,75,20,36
130,44,45,206,195,52,20,31
160,51,41,212,163,46,24,34
160,47,41,231,208,44,23,35
156,46,39,212,214,36,24,32
147,45,48,154,275,39,30,36
138,45,56,158,188,65,27,36
130,45,60,164,222,69,26,36
128,42,56,208,223,69,21,33
133,42,57,230,228,73,21,35
147,45,54,219,225,75,20,36
130,44,45,206,195,52,20,31
160,51,41,212,163,46,24,34
160,47,41,231,208,44,23,35
156,46,39,212,214,36,24,32
164,48,41,222,232,36,25,32
169,49,47,234,255,58,27,34
148,44,50,232,242,61,25,31
155,49,52,189,203,63,24,32
145,52,51,208,238,62,26,29
123,47,50,207,254,62,31,27
130,44,46,183,237,42,32,28
119,42,44,185,245,38,30,27
117,41,40,165,239,36,32,28
112,37,45,148,187,36,31,29
118,42,48,141,185,32,26,31
151,46,47,192,209,67,28,32
181,53,49,189,225,71,28,36
180,52,48,178,234,72,26,37
190,51,39,166,233,73,28,37
185,50,35,174,239,72,28,38
147,54,45,191,236,67,25,34
110,50,50,197,222,64,27,33
106,49,51,207,227,66,28,30
126,48,55,217,235,65,27,33
118,42,48,141,185,32,26,31
151,46,47,192,209,67,28,32
181,53,49,189,225,71,28,36
180,52,48,178,234,72,26,37
190,51,39,166,233,73,28,37
185,50,35,174,239,72,28,38
147,54,45,191,236,67,25,34
110,50,50,197,222,64,27,33
106,49,51,207,227,66,28,30
126,48,55,217,235,65,27,33
130,50,58,238,197,66,26,32
133,42,50,188,178,44,29,33
137,38,43,192,189,46,28,33
135,41,43,185,195,41,26,36
99,42,39,189,218,44,27,31
96,40,39,151,225,63,26,33
112,47,41,164,228,64,25,36
139,53,46,148,223,62,25,35
136,51,49,192,234,67,25,31
145,51,51,193,211,66,27,32
159,57,49,193,212,45,28,30
156,55,52,191,236,68,29,26
138,54,48,186,238,69,29,24
159,55,50,173,241,67,30,29
161,55,48,166,242,68,28,34
193,52,46,169,251,68,31,37
216,49,44,189,232,41,29,38
220,45,45,195,224,43,29,39
211,44,41,166,191,80,30,36
212,49,52,166,190,82,30,34
159,57,49,193,212,45,28,30
156,55,52,191,236,68,29,26
138,54,48,186,238,69,29,24
159,55,50,173,241,67,30,29
161,55,48,166,242,68,28,34
193,52,46,169,251,68,31,37
216,49,44,189,232,41,29,38
220,45,45,195,224,43,29,39
211,44,41,166,191,80,30,36
212,49,52,166,190,82,30,34
172,45,53,250,271,88,28,32
141,52,61,240,270,90,30,34
124,52,58,236,269,90,31,35
175,55,57,233,276,55,29,40
170,50,58,246,271,52,30,39
164,50,56,154,164,42,29,38
159,43,50,130,167,62,28,36
161,43,55,155,150,64,27,33
101,41,60,158,151,67,27,30
125,49,52,119,170,66,27,33
140,47,52,136,171,69,24,35
143,45,49,156,225,51,22,34
139,46,49,167,249,47,22,35
142,44,44,173,251,44,23,34
146,41,49,188,250,69,26,30
149,43,51,186,256,69,27,31
157,48,53,202,230,69,28,34
156,47,47,184,217,71,29,34
158,49,48,186,200,71,28,35
129,46,43,173,183,47,24,34
140,47,52,136,171,69,24,35
143,45,49,156,225,51,22,34
139,46,49,167,249,47,22,35
142,44,44,173,251,44,23,34
146,41,49,188,250,69,26,30
149,43,51,186,256,69,27,31
157,48,53,202,230,69,28,34
156,47,47,184,217,71,29,34
158,49,48,186,200,71,28,35
129,46,43,173,183,47,24,34
119,46,40,166,191,40,24,31
107,42,41,137,184,39,22,27
108,39,42,145,244,33,22,26
99,42,45,178,260,61,22,25
136,45,47,191,266,63,24,29
153,51,51,194,256,66,22,33
180,53,50,187,245,70,20,35
202,59,50,170,263,72,21,40
218,57,48,138,284,53,23,42
202,58,50,148,294,50,22,38
182,52,48,156,301,57,23,34
161,53,47,159,296,65,25,37
141,52,49,167,219,68,25,33
124,52,49,166,194,67,26,34
155,51,45,144,215,67,26,41
186,55,46,225,237,59,26,44
183,52,52,246,239,46,25,41
177,51,49,245,243,67,25,40
171,48,49,245,259,67,25,39
173,46,53,247,243,68,29,40
182,52,48,156,301,57,23,34
161,53,47,159,296,65,25,37
141,52,49,167,219,68,25,33
124,52,49,166,194,67,26,34
155,51,45,144,215,67,26,41
186,55,46,225,237,59,26,44
183,52,52,246,239,46,25,41
177,51,49,245,243,67,25,40
171,48,49,245,259,67,25,39
173,46,53,247,243,68,29,40
151,42,55,169,227,72,28,34
162,47,48,169,231,70,29,34
164,43,50,188,234,46,30,35
161,43,50,189,211,81,32,35
134,42,53,217,246,80,28,28
147,50,53,247,243,80,29,33
140,51,55,229,239,80,28,32
141,51,55,217,232,80,30,34
158,53,58,271,241,45,27,37
157,51,55,261,198,44,27,37
135,42,49,240,191,66,28,33
162,40,47,260,185,67,28,38
197,46,52,259,190,75,24,42
226,44,47,196,173,74,26,40
244,43,46,185,152,76,25,40
246,42,45,178,163,59,25,41
229,45,47,151,212,72,28,35
210,40,41,138,236,62,28,33
165,43,41,175,234,70,27,35
135,45,39,172,240,69,29,34
135,42,49,240,191,66,28,33
162,40,47,260,185,67,28,38
197,46,52,259,190,75,24,42
226,44,47,196,173,74,26,40
244,43,46,185,152,76,25,40
246,42,45,178,163,59,25,41
229,45,47,151,212,72,28,35
210,40,41,138,236,62,28,33
165,43,41,175,234,70,27,35
135,45,39,172,240,69,29,34
142,45,45,183,234,67,27,35
131,41,45,183,195,59,28,37
136,49,51,206,225,70,28,33
138,48,49,182,230,64,27,33
150,47,51,220,254,65,26,35
146,53,49,275,259,66,29,37
148,53,47,273,250,55,25,36
124,49,43,271,196,45,25,36
117,49,55,308,252,68,25,33
92,51,54,280,228,68,25,29
80,46,57,263,277,78,25,28
70,48,64,350,336,87,26,31
62,48,67,423,380,86,26,31
58,47,62,450,355,72,25,29
75,52,91,539,504,78,27,31
73,61,122,590,517,89,31,33
75,68,123,595,529,90,29,28
97,70,135,564,541,96,32,32
98,71,138,654,577,108,36,34
94,74,125,610,488,120,35,33
80,46,57,263,277,78,25,28
70,48,64,350,336,87,26,31
62,48,67,423,380,86,26,31
58,47,62,450,355,72,25,29
75,52,91,539,504,78,27,31
73,61,122,590,517,89,31,33
75,68,123,595,529,90,29,28
97,70,135,564,541,96,32,32
98,71,138,654,577,108,36,34
94,74,125,610,488,120,35,33
97,66,104,639,488,106,33,31
96,60,110,631,503,105,38,33
72,58,112,705,490,111,37,30
71,60,117,664,546,107,38,29
47,49,122,724,563,94,41,27
40,53,121,705,567,102,41,28
35,52,121,710,568,138,39,27
36,57,105,671,621,132,38,28
39,59,102,687,614,128,39,34
39,60,111,690,643,137,35,37
40,59,121,684,649,157,35,36
46,73,154,757,605,139,37,42
47,75,158,797,637,140,43,44
46,82,175,856,627,161,46,44
48,87,214,1025,672,163,52,48
59,104,250,1127,798,165,80,68
58,105,261,1080,977,166,85,71
62,103,276,1157,1041,212,85,74
76,136,335,1121,1104,217,88,78
81,137,317,1053,1085,240,90,78
274,88,85,294,475,88,35,55
203,88,84,378,473,62,31,49
191,92,88,382,442,57,31,50
228,92,87,389,475,55,34,54
242,88,59,321,321,63,33,65
252,87,62,293,332,75,34,68
261,85,60,226,381,75,35,69
263,73,57,270,378,80,34,67
233,68,54,272,334,77,30,63
279,67,53,272,319,64,28,56
272,69,48,267,281,49,24,51
294,71,44,240,364,44,27,63
301,73,55,244,397,33,28,61
291,73,62,235,409,32,28,60
223,67,62,264,414,34,27,55
278,81,64,286,408,36,29,65
307,95,64,267,284,36,27,58
324,99,51,204,276,39,28,58
325,99,55,231,306,40,31,62
328,98,65,235,341,40,32,63
275,83,67,236,358,38,30,52
224,64,72,242,345,39,29,47
186,62,73,244,296,36,29,49
199,62,62,207,257,33,25,44
202,65,51,160,202,34,23,45
198,62,51,187,261,37,23,44
195,64,53,222,290,33,26,40
213,57,56,239,300,32,24,38
196,55,57,244,330,33,23,42
227,56,59,247,338,34,23,47
275,83,67,236,358,38,30,52
224,64,72,242,345,39,29,47
186,62,73,244,296,36,29,49
199,62,62,207,257,33,25,44
202,65,51,160,202,34,23,45
198,62,51,187,261,37,23,44
195,64,53,222,290,33,26,40
213,57,56,239,300,32,24,38
196,55,57,244,330,33,23,42
227,56,59,247,338,34,23,47
235,62,60,208,285,33,23,50
262,73,51,300,283,38,21,53
248,72,50,295,291,42,21,51
241,72,56,293,285,41,23,47
223,71,58,318,318,40,25,40
215,69,56,351,326,39,24,37
172,70,62,258,315,90,28,34
175,74,62,263,346,92,28,37
177,74,61,284,329,97,28,37
175,77,57,257,296,98,29,41
187,77,66,258,299,111,28,41
184,67,71,253,290,80,25,41
186,64,70,294,268,77,25,38
211,67,70,278,272,74,28,38
195,67,73,299,297,73,27,32
176,66,67,254,285,48,29,29
170,63,58,263,306,39,29,31
170,61,71,247,314,38,30,31
155,57,72,263,295,32,27,33
151,50,69,271,260,33,28,34
187,77,66,258,299,111,28,41
184,67,71,253,290,80,25,41
186,64,70,294,268,77,25,38
211,67,70,278,272,74,28,38
195,67,73,299,297,73,27,32
176,66,67,254,285,48,29,29
170,63,58,263,306,39,29,31
170,61,71,247,314,38,30,31
155,57,72,263,295,32,27,33
151,50,69,271,260,33,28,34
161,47,66,270,248,33,28,39
164,42,66,258,260,32,27,39
167,42,54,223,240,38,28,40
153,44,52,240,258,39,26,38
147,46,54,208,300,38,26,38
144,47,58,287,312,41,27,36
140,48,62,296,332,44,27,34
127,50,62,306,377,40,25,32
138,49,58,280,389,41,28,37
138,48,62,332,400,43,28,39
163,47,59,288,409,43,27,36
227,53,57,307,391,64,26,45
239,53,55,295,341,65,26,48
240,57,58,299,328,67,24,49
247,55,51,241,279,68,25,49
258,59,53,263,291,68,27,52
265,62,49,232,287,48,28,47
263,65,50,249,296,45,28,48
267,62,45,237,269,44,28,44
264,65,49,238,263,41,27,43
163,47,59,288,409,43,27,36
227,53,57,307,391,64,26,45
239,53,55,295,341,65,26,48
240,57,58,299,328,67,24,49
247,55,51,241,279,68,25,49
258,59,53,263,291,68,27,52
265,62,49,232,287,48,28,47
263,65,50,249,296,45,28,48
267,62,45,237,269,44,28,44
264,65,49,238,263,41,27,43
239,60,45,199,249,41,24,40
180,54,47,214,217,42,26,39
161,48,58,228,268,42,26,35
165,45,70,258,279,38,29,36
193,41,68,254,282,38,30,44
188,46,68,248,272,39,30,42
185,46,72,239,280,63,28,40
210,50,65,212,236,67,27,41
199,54,66,262,238,70,24,39
185,57,70,282,246,73,25,32
195,61,72,286,233,71,25,34
187,58,70,311,237,49,25,37
191,63,75,309,226,42,24,35
182,65,67,270,217,37,22,36
180,61,64,248,249,30,22,34
198,54,64,251,270,32,24,38
201,55,64,215,287,33,26,37
193,52,56,228,283,39,27,38
230,55,53,211,283,40,28,38
242,59,56,231,268,41,28,38
195,61,72,286,233,71,25,34
187,58,70,311,237,49,25,37
191,63,75,309,226,42,24,35
182,65,67,270,217,37,22,36
180,61,64,248,249,30,22,34
198,54,64,251,270,32,24,38
201,55,64,215,287,33,26,37
193,52,56,228,283,39,27,38
230,55,53,211,283,40,28,38
242,59,56,231,268,41,28,38
218,58,53,238,257,40,29,36
223,60,53,244,225,37,27,35
208,59,52,253,223,33,28,35
174,50,52,235,237,39,29,38
147,54,47,214,220,40,28,37
188,58,47,208,217,42,28,42
198,62,42,198,215,66,28,42
214,62,41,159,207,66,25,42
209,64,44,189,226,63,24,38
226,61,46,210,232,64,22,42
211,62,51,204,245,65,22,36
196,56,55,209,259,44,22,37
177,52,56,247,256,42,23,36
193,51,52,233,241,39,25,37
174,45,55,217,243,38,26,33
165,41,53,210,241,32,23,38
166,41,50,203,254,29,21,38
167,43,54,221,255,38,22,37
153,49,54,208,285,40,22,37
153,51,51,225,282,41,23,36
211,62,51,204,245,65,22,36
196,56,55,209,259,44,22,37
177,52,56,247,256,42,23,36
193,51,52,233,241,39,25,37
174,45,55,217,243,38,26,33
165,41,53,210,241,32,23,38
166,41,50,203,254,29,21,38
167,43,54,221,255,38,22,37
153,49,54,208,285,40,22,37
153,51,51,225,282,41,23,36
158,51,57,226,261,45,25,31
151,50,63,236,237,43,27,31
146,47,63,171,244,39,26,31
149,41,62,179,224,41,23,34
156,46,61,177,253,41,25,39
151,47,58,178,264,41,24,38
164,47,52,168,258,43,24,40
156,48,51,180,286,42,23,39
150,48,53,211,262,39,24,35
140,41,51,187,238,38,24,31
125,39,55,189,265,36,23,30
110,37,56,213,304,37,20,28
112,41,55,214,265,35,21,30
129,43,64,211,263,33,21,36
125,50,72,271,263,33,22,37
131,52,72,284,245,34,23,38
141,56,81,271,221,37,26,40
169,58,89,319,276,38,25,37
153,54,85,323,290,43,26,31
163,50,80,274,276,43,24,31
125,39,55,189,265,36,23,30
110,37,56,213,304,37,20,28
112,41,55,214,265,35,21,30
129,43,64,211,263,33,21,36
125,50,72,271,263,33,22,37
131,52,72,284,245,34,23,38
141,56,81,271,221,37,26,40
169,58,89,319,276,38,25,37
153,54,85,323,290,43,26,31
163,50,80,274,276,43,24,31
157,45,73,275,270,40,28,30
185,58,63,279,274,36,31,31
186,62,50,230,229,36,35,36
183,64,53,271,249,34,34,36
192,65,54,299,291,37,34,36
203,68,60,284,293,38,31,36
187,57,59,283,285,37,27,33
167,51,64,279,274,37,25,29
216,51,62,221,248,39,23,37
215,53,72,221,204,36,24,39
218,59,69,216,209,39,24,40
222,59,67,202,220,40,24,42
232,59,64,189,242,39,23,45
197,60,60,199,245,31,22,40
196,62,47,175,257,33,21,40
193,58,43,183,248,40,23,38
182,55,45,191,236,44,24,38
178,52,44,201,249,45,23,34
186,50,47,209,254,46,25,34
167,40,56,205,242,46,26,32
218,59,69,216,209,39,24,40
222,59,67,202,220,40,24,42
232,59,64,189,242,39,23,45
197,60,60,199,245,31,22,40
196,62,47,175,257,33,21,40
193,58,43,183,248,40,23,38
182,55,45,191,236,44,24,38
178,52,44,201,249,45,23,34
186,50,47,209,254,46,25,34
167,40,56,205,242,46,26,32
156,33,61,227,240,38,23,31
164,37,62,230,220,37,23,34
164,38,63,254,197,36,23,35
154,45,68,280,189,36,24,32
167,51,74,327,213,35,24,31
177,53,77,326,205,32,26,37
179,54,76,327,277,29,25,41
170,61,81,356,290,36,27,41
178,58,77,322,300,38,25,41
165,52,68,286,291,38,25,42
158,50,60,285,291,39,23,37
151,52,60,303,271,38,23,36
166,52,58,283,256,33,23,38
150,50,58,295,247,37,25,40
161,56,55,283,246,35,24,42
168,62,57,268,287,37,25,45
175,61,55,252,247,39,26,45
164,58,46,217,287,44,26,47
164,59,48,212,291,41,28,46
169,56,52,216,307,42,29,45
158,50,60,285,291,39,23,37
151,52,60,303,271,38,23,36
166,52,58,283,256,33,23,38
150,50,58,295,247,37,25,40
161,56,55,283,246,35,24,42
168,62,57,268,287,37,25,45
175,61,55,252,247,39,26,45
164,58,46,217,287,44,26,47
164,59,48,212,291,41,28,46
169,56,52,216,307,42,29,45
164,56,59,225,274,42,29,42
139,52,59,209,280,41,28,38
138,46,61,198,247,36,29,33
163,44,55,206,253,41,24,33
164,48,58,237,248,44,26,34
167,39,54,255,254,46,27,35
187,45,57,272,248,49,31,39
178,49,62,307,232,49,29,39
159,52,66,299,210,42,29,41
144,51,63,267,210,44,28,37
145,61,64,258,261,41,25,36
149,57,62,242,255,37,22,33
184,55,62,209,281,36,26,36
189,51,62,202,281,38,26,37
190,48,59,231,273,32,25,37
184,39,62,249,214,34,25,35
169,46,65,241,267,36,24,32
143,47,63,243,277,34,22,32
151,49,65,246,281,36,25,35
152,50,65,246,276,36,26,37
145,61,64,258,261,41,25,36
149,57,62,242,255,37,22,33
184,55,62,209,281,36,26,36
189,51,62,202,281,38,26,37
190,48,59,231,273,32,25,37
184,39,62,249,214,34,25,35
169,46,65,241,267,36,24,32
143,47,63,243,277,34,22,32
151,49,65,246,281,36,25,35
152,50,65,246,276,36,26,37
150,48,63,224,302,39,25,38
152,46,61,240,295,38,25,42
148,53,65,256,319,42,27,39
160,55,68,277,316,41,26,39
158,55,76,319,341,42,24,37
174,61,76,309,314,39,25,38
170,57,76,321,289,46,26,34
164,55,77,312,241,43,24,35
137,50,76,311,261,44,25,30
153,56,75,264,214,41,27,35
132,53,73,284,227,42,27,35
125,53,74,316,318,36,26,37
124,48,69,311,318,38,25,35
117,50,64,300,341,40,23,35
85,45,61,292,359,43,23,27
65,38,63,312,360,41,23,23
58,38,68,328,299,41,27,21
54,39,70,348,317,42,26,20
41,43,67,339,289,41,25,20
93,41,62,349,300,39,24,25
132,53,73,284,227,42,27,35
125,53,74,316,318,36,26,37
124,48,69,311,318,38,25,35
117,50,64,300,341,40,23,35
85,45,61,292,359,43,23,27
65,38,63,312,360,41,23,23
58,38,68,328,299,41,27,21
54,39,70,348,317,42,26,20
41,43,67,339,289,41,25,20
93,41,62,349,300,39,24,25
154,49,58,348,326,40,24,37
158,49,50,285,330,38,20,38
162,49,56,342,309,36,20,39
172,44,58,358,306,31,22,41
151,46,69,412,334,33,23,39
100,46,75,410,363,31,21,29
124,48,74,421,356,37,23,30
150,48,66,372,351,43,30,35
139,51,72,372,354,44,32,33
138,49,60,317,347,44,34,32
132,43,52,297,313,44,35,32
103,42,55,386,340,67,35,31
50,41,71,445,360,67,30,25
48,43,74,455,372,71,28,22
66,43,78,461,363,75,26,22
65,48,87,493,360,76,27,23
66,51,103,530,379,74,31,24
81,53,96,499,479,96,30,25
81,51,107,552,492,113,31,31
74,73,154,621,528,121,39,42
132,43,52,297,313,44,35,32
103,42,55,386,340,67,35,31
50,41,71,445,360,67,30,25
48,43,74,455,372,71,28,22
66,43,78,461,363,75,26,22
65,48,87,493,360,76,27,23
66,51,103,530,379,74,31,24
81,53,96,499,479,96,30,25
81,51,107,552,492,113,31,31
74,73,154,621,528,121,39,42
73,75,158,640,577,126,39,44
73,80,164,692,607,118,37,44
59,81,163,784,567,135,38,46
57,83,168,843,696,127,38,42
50,76,178,923,675,144,36,37
52,82,196,1065,661,166,37,37
51,85,205,1023,741,179,42,41
50,89,223,1024,775,165,43,41
59,93,237,1001,694,176,43,43
57,93,226,1096,724,189,42,45
62,112,253,1089,793,175,48,53
69,118,258,1304,813,203,50,62
86,143,306,1340,790,210,61,71
91,158,339,1357,810,214,63,77
91,157,333,1232,859,200,71,78
88,154,341,1230,931,221,67,73
83,157,359,1111,913,318,68,70
68,137,349,1054,958,324,66,65
73,138,360,1094,1081,332,77,67
85,152,392,1189,1114,365,74,73
224,54,84,438,361,86,28,54
183,52,92,411,298,70,25,47
140,50,103,415,284,66,23,36
117,41,92,334,241,48,21,28
103,38,87,308,257,34,19,21
113,38,79,271,269,30,17,21
120,40,65,197,277,28,17,22
117,37,52,159,259,30,17,22
109,38,56,197,263,32,16,25
101,43,74,246,241,58,21,26
116,44,79,291,237,59,22,30
140,44,82,291,238,62,24,31
149,45,78,307,233,61,24,33
171,45,71,294,217,61,25,37
196,41,54,259,224,42,23,38
193,41,47,245,246,40,23,40
183,37,41,262,229,33,23,40
182,37,41,239,251,33,24,38
171,35,38,226,300,32,24,33
157,36,37,219,292,30,24,32
148,37,36,174,273,31,23,27
157,43,43,191,365,33,23,30
159,48,52,220,403,36,22,31
155,49,56,224,378,36,23,31
162,50,55,223,378,31,21,32
176,51,54,231,370,29,23,33
161,45,49,193,269,28,23,30
169,42,42,164,218,26,22,30
171,41,41,291,349,29,22,30
151,37,46,306,348,30,23,29
148,37,36,174,273,31,23,27
157,43,43,191,365,33,23,30
159,48,52,220,403,36,22,31
155,49,56,224,378,36,23,31
162,50,55,223,378,31,21,32
176,51,54,231,370,29,23,33
161,45,49,193,269,28,23,30
169,42,42,164,218,26,22,30
171,41,41,291,349,29,22,30
151,37,46,306,348,30,23,29
148,35,50,320,387,31,22,27
165,42,49,322,388,29,23,33
153,41,48,325,368,28,27,34
159,45,45,283,277,26,27,36
164,45,43,279,366,30,26,36
141,44,41,278,333,32,27,34
115,37,40,270,331,31,25,27
131,39,38,267,342,32,22,27
119,38,37,256,332,30,19,24
116,39,38,256,293,29,22,27
119,40,38,233,292,26,20,27
125,45,40,246,298,29,21,28
94,41,47,257,303,28,23,26
105,43,51,212,357,32,23,27
108,41,50,200,317,30,21,26
136,40,48,201,312,30,21,31
141,38,48,218,311,27,20,31
143,40,43,204,308,29,18,30
136,36,38,183,225,25,20,30
132,37,38,180,252,25,22,29
119,40,38,233,292,26,20,27
125,45,40,246,298,29,21,28
94,41,47,257,303,28,23,26
105,43,51,212,357,32,23,27
108,41,50,200,317,30,21,26
136,40,48,201,312,30,21,31
141,38,48,218,311,27,20,31
143,40,43,204,308,29,18,30
136,36,38,183,225,25,20,30
132,37,38,180,252,25,22,29
113,35,39,203,267,26,22,25
96,35,45,189,257,25,22,23
118,35,48,212,257,27,25,27
122,33,48,229,246,27,23,28
122,30,46,227,240,25,23,29
125,37,49,214,254,26,24,27
132,38,49,219,287,25,27,29
114,41,49,212,279,22,26,30
107,41,55,210,321,30,28,27
106,43,57,239,312,31,27,27
93,43,56,257,282,32,28,28
90,43,67,282,246,33,24,25
87,42,74,337,252,33,22,19
79,45,71,333,227,27,19,19
81,46,69,316,210,27,21,19
98,44,70,321,255,29,21,21
107,44,59,291,253,29,24,25
130,45,51,231,281,34,25,28
160,44,52,221,265,35,26,32
167,44,55,287,288,37,24,33
93,43,56,257,282,32,28,28
90,43,67,282,246,33,24,25
87,42,74,337,252,33,22,19
79,45,71,333,227,27,19,19
81,46,69,316,210,27,21,19
98,44,70,321,255,29,21,21
107,44,59,291,253,29,24,25
130,45,51,231,281,34,25,28
160,44,52,221,265,35,26,32
167,44,55,287,288,37,24,33
174,41,54,260,253,36,23,35
173,44,49,255,251,35,21,36
172,43,51,237,217,32,20,35
144,43,49,271,219,33,22,30
156,42,44,205,233,30,23,37
149,47,46,201,250,31,23,36
143,44,47,197,257,29,22,34
160,46,46,214,269,34,22,36
166,42,47,188,294,35,18,38
159,45,48,219,266,38,21,37
154,41,46,231,290,38,20,35
151,37,43,229,310,38,22,37
116,31,37,222,297,33,24,35
121,36,33,218,269,28,24,34
111,34,35,184,265,25,22,27
121,36,38,173,273,26,24,27
122,35,39,176,276,25,24,23
120,34,36,174,277,26,24,23
107,31,39,185,282,30,23,20
133,45,42,178,274,28,24,30
154,41,46,231,290,38,20,35
151,37,43,229,310,38,22,37
116,31,37,222,297,33,24,35
121,36,33,218,269,28,24,34
111,34,35,184,265,25,22,27
121,36,38,173,273,26,24,27
122,35,39,176,276,25,24,23
120,34,36,174,277,26,24,23
107,31,39,185,282,30,23,20
133,45,42,178,274,28,24,30
129,45,41,180,249,30,23,32
135,48,48,196,229,33,23,33
135,47,53,201,220,32,22,33
134,47,54,179,229,30,23,33
102,34,49,196,242,31,24,25
105,34,49,190,253,30,23,24
100,32,48,225,240,31,25,23
99,35,49,213,287,32,23,22
115,40,52,214,277,32,23,24
111,41,54,203,266,33,21,24
96,38,59,214,238,31,21,21
101,37,55,195,240,33,21,21
140,40,50,192,180,31,24,28
136,40,43,198,192,30,23,27
141,40,41,195,203,29,24,27
140,45,31,175,249,29,26,28
135,47,30,149,256,26,23,28
97,43,35,170,318,33,23,22
96,38,36,182,318,36,24,24
93,36,37,208,308,36,23,25
96,38,59,214,238,31,21,21
101,37,55,195,240,33,21,21
140,40,50,192,180,31,24,28
136,40,43,198,192,30,23,27
141,40,41,195,203,29,24,27
140,45,31,175,249,29,26,28
135,47,30,149,256,26,23,28
97,43,35,170,318,33,23,22
96,38,36,182,318,36,24,24
93,36,37,208,308,36,23,25
123,33,41,224,283,37,20,24
120,32,46,210,279,50,21,24
118,31,52,261,233,48,21,23
118,34,55,276,263,47,20,21
135,37,57,264,277,53,22,25
104,35,59,262,253,55,23,23
105,34,60,295,254,45,22,25
101,33,56,269,248,44,20,25
99,32,53,237,207,44,21,26
77,31,54,266,216,39,20,24
81,32,48,266,247,45,22,24
91,33,49,246,246,49,23,22
114,34,46,247,279,49,24,27
107,35,43,284,296,47,24,25
110,36,42,273,281,48,23,26
123,36,41,275,311,43,20,29
136,37,33,280,309,40,22,30
120,40,36,253,273,39,21,28
121,40,35,218,285,49,22,30
123,42,35,214,311,48,21,28
81,32,48,266,247,45,22,24
91,33,49,246,246,49,23,22
114,34,46,247,279,49,24,27
107,35,43,284,296,47,24,25
110,36,42,273,281,48,23,26
123,36,41,275,311,43,20,29
136,37,33,280,309,40,22,30
120,40,36,253,273,39,21,28
121,40,35,218,285,49,22,30
123,42,35,214,311,48,21,28
140,41,37,207,267,46,23,27
126,42,41,210,279,45,22,27
127,45,42,220,268,45,21,26
129,45,48,217,230,40,21,27
120,40,47,189,216,45,24,28
89,43,48,217,225,50,22,26
93,43,56,214,211,49,21,25
89,38,56,192,222,48,27,24
92,44,56,202,222,48,26,21
103,46,58,226,242,46,25,20
107,44,61,257,239,40,25,22
115,42,51,243,230,39,25,26
117,41,59,280,243,38,19,28
131,39,55,305,273,37,20,30
131,36,53,293,242,32,19,30
145,35,49,237,232,39,20,37
137,36,52,240,241,40,20,34
136,38,41,211,273,41,24,34
126,35,38,182,253,39,27,33
127,37,39,192,310,39,28,34
107,44,61,257,239,40,25,22
115,42,51,243,230,39,25,26
117,41,59,280,243,38,19,28
131,39,55,305,273,37,20,30
131,36,53,293,242,32,19,30
145,35,49,237,232,39,20,37
137,36,52,240,241,40,20,34
136,38,41,211,273,41,24,34
126,35,38,182,253,39,27,33
127,37,39,192,310,39,28,34
103,44,35,198,337,37,27,26
101,45,36,205,347,41,27,29
117,46,36,190,305,39,23,29
114,46,45,165,290,40,19,29
119,44,47,147,235,39,18,30
140,43,50,143,241,36,18,29
147,43,48,189,297,38,19,26
137,39,49,194,315,46,21,25
133,40,44,203,317,47,21,25
129,43,46,215,319,47,22,23
104,35,50,257,344,47,23,23
122,33,49,224,285,42,22,27
121,35,49,220,285,34,22,27
123,34,53,240,283,42,23,28
113,29,51,268,287,41,22,27
113,38,47,226,263,42,21,27
75,39,52,250,283,41,20,23
73,38,49,256,291,44,22,25
102,47,49,245,289,40,22,30
112,47,48,207,294,40,22,30
104,35,50,257,344,47,23,23
122,33,49,224,285,42,22,27
121,35,49,220,285,34,22,27
123,34,53,240,283,42,23,28
113,29,51,268,287,41,22,27
113,38,47,226,263,42,21,27
75,39,52,250,283,41,20,23
73,38,49,256,291,44,22,25
102,47,49,245,289,40,22,30
112,47,48,207,294,40,22,30
121,43,47,209,252,37,22,31
129,45,50,164,220,39,24,32
147,49,54,161,185,37,22,32
139,40,47,170,196,49,25,29
129,41,50,180,180,49,25,29
127,47,51,200,242,54,25,28
117,46,45,242,324,54,25,27
110,43,39,259,352,61,24,30
95,45,43,237,373,60,23,26
114,47,41,231,370,63,23,29
113,45,39,212,340,59,25,33
117,43,39,170,287,58,26,33
109,45,43,159,252,54,26,28
124,43,43,163,226,46,24,31
130,40,43,179,244,41,25,28
133,37,43,199,243,43,22,25
134,35,42,193,242,41,22,24
128,33,44,197,263,50,21,24
150,40,52,259,270,46,21,26
134,44,53,271,275,48,20,26
113,45,39,212,340,59,25,33
117,43,39,170,287,58,26,33
109,45,43,159,252,54,26,28
124,43,43,163,226,46,24,31
130,40,43,179,244,41,25,28
133,37,43,199,243,43,22,25
134,35,42,193,242,41,22,24
128,33,44,197,263,50,21,24
150,40,52,259,270,46,21,26
134,44,53,271,275,48,20,26
131,43,54,260,267,46,20,28
130,45,55,307,251,52,19,28
129,42,53,294,230,44,20,29
83,36,45,247,207,43,19,26
96,32,44,248,161,42,19,25
93,30,44,245,176,44,19,24
104,29,45,189,200,46,18,26
114,38,45,198,208,49,24,26
113,39,43,199,217,49,24,24
102,40,44,158,222,49,25,24
97,40,43,167,263,53,25,23
93,42,42,207,255,49,27,23
112,39,42,241,273,43,25,24
125,40,40,263,275,42,25,25
133,41,43,273,278,49,25,27
135,41,45,281,228,44,25,28
137,38,52,261,226,44,25,28
114,34,55,258,226,47,25,28
151,29,54,230,221,62,26,33
148,34,57,219,240,77,26,32
97,40,43,167,263,53,25,23
93,42,42,207,255,49,27,23
112,39,42,241,273,43,25,24
125,40,40,263,275,42,25,25
133,41,43,273,278,49,25,27
135,41,45,281,228,44,25,28
137,38,52,261,226,44,25,28
114,34,55,258,226,47,25,28
151,29,54,230,221,62,26,33
148,34,57,219,240,77,26,32
144,33,62,249,276,84,25,31
132,33,58,276,297,91,23,31
134,34,55,268,273,104,22,32
69,36,68,313,342,106,20,25
69,33,70,376,337,101,21,24
78,39,75,370,349,96,21,27
77,40,76,354,412,122,23,25
72,39,77,412,438,125,26,25
69,44,69,383,430,123,28,25
56,42,68,383,528,127,30,27
33,43,70,394,574,132,31,27
34,52,89,426,563,124,31,30
36,66,115,461,596,118,29,28
39,73,133,585,628,126,32,34
42,78,140,635,553,125,37,37
41,76,136,634,497,132,39,36
36,73,130,643,467,139,38,33
36,63,114,588,447,137,43,34
34,53,96,488,434,141,42,32
30,50,96,413,472,145,38,29
33,43,70,394,574,132,31,27
34,52,89,426,563,124,31,30
36,66,115,461,596,118,29,28
39,73,133,585,628,126,32,34
42,78,140,635,553,125,37,37
41,76,136,634,497,132,39,36
36,73,130,643,467,139,38,33
36,63,114,588,447,137,43,34
34,53,96,488,434,141,42,32
30,50,96,413,472,145,38,29
31,50,93,426,580,153,41,32
31,46,86,446,604,157,41,32
30,51,94,468,578,155,36,33
29,47,90,553,616,146,34,29
29,44,81,634,614,139,35,30
31,45,90,684,587,134,30,27
33,48,103,710,577,127,34,30
34,47,91,730,611,138,37,33
34,52,94,701,552,145,37,34
36,61,112,682,557,147,37,34
38,68,116,716,621,162,39,38
44,90,166,739,630,155,46,41
49,105,207,780,737,162,45,44
56,112,224,847,761,166,55,50
64,122,242,878,816,177,62,59
75,146,294,914,735,159,68,65
79,143,297,1000,770,157,64,64
77,133,285,1026,717,193,69,64
78,136,289,1115,815,246,66,66
77,130,279,1152,974,265,69,67
288,80,144,547,442,131,36,66
276,77,144,598,524,140,39,64
474,78,147,581,519,153,38,94
508,71,136,535,542,156,38,99
595,84,139,547,497,156,37,103
645,97,113,588,514,134,41,107
652,106,130,532,460,109,38,108
546,105,129,490,478,91,40,85
531,108,135,492,461,81,43,76
569,121,128,466,450,72,41,79
569,119,119,393,339,71,46,94
567,112,112,447,349,66,48,95
553,110,108,468,334,61,46,91
523,101,103,441,331,61,43,87
412,89,108,537,354,60,42,86
341,87,110,522,352,82,33,67
337,87,84,466,298,83,30,67
362,90,83,464,347,90,28,73
377,91,86,481,417,93,24,77
328,90,82,418,440,94,26,64
324,89,79,423,435,65,30,66
330,101,87,414,445,85,29,68
277,97,87,375,415,77,29,62
259,96,78,366,373,75,29,59
280,86,84,314,391,75,29,63
294,83,82,303,395,74,23,61
269,68,77,305,377,50,25,58
254,63,87,388,347,48,26,55
237,58,85,421,364,47,29,50
250,65,95,400,327,45,27,47
324,89,79,423,435,65,30,66
330,101,87,414,445,85,29,68
277,97,87,375,415,77,29,62
259,96,78,366,373,75,29,59
280,86,84,314,391,75,29,63
294,83,82,303,395,74,23,61
269,68,77,305,377,50,25,58
254,63,87,388,347,48,26,55
237,58,85,421,364,47,29,50
250,65,95,400,327,45,27,47
249,66,96,412,320,46,27,44
259,63,92,407,321,39,26,43
281,64,78,314,342,40,26,45
277,70,79,209,331,41,23,45
235,54,60,256,343,41,23,40
237,52,60,232,346,41,24,37
243,54,61,229,406,41,22,35
221,53,63,227,425,39,21,32
230,50,56,225,393,32,21,33
247,54,55,155,413,37,21,35
228,49,52,157,418,34,20,35
209,46,51,144,390,34,24,34
214,46,56,151,357,38,26,38
212,41,59,155,376,43,26,41
178,39,56,161,356,39,26,42
190,49,67,176,344,39,27,44
210,52,70,189,333,42,25,49
254,62,67,195,321,40,28,55
251,65,67,224,276,37,28,53
261,66,66,240,255,34,28,54
228,49,52,157,418,34,20,35
209,46,51,144,390,34,24,34
214,46,56,151,357,38,26,38
212,41,59,155,376,43,26,41
178,39,56,161,356,39,26,42
190,49,67,176,344,39,27,44
210,52,70,189,333,42,25,49
254,62,67,195,321,40,28,55
251,65,67,224,276,37,28,53
261,66,66,240,255,34,28,54
252,61,61,230,282,36,25,54
233,59,66,301,287,36,25,48
209,49,66,341,300,36,20,45
219,51,64,320,300,37,22,47
218,49,61,315,335,39,21,46
209,48,55,334,319,38,20,42
233,47,49,270,326,36,21,44
224,45,48,235,314,34,21,47
197,42,63,269,314,33,18,42
194,45,63,256,242,31,20,40
198,44,65,236,285,36,22,43
165,48,60,234,295,36,22,42
134,54,58,235,299,37,23,35
136,51,45,226,315,38,23,33
124,50,51,247,335,38,22,34
101,50,52,239,335,36,21,34
182,66,56,237,314,34,21,39
212,67,59,246,357,34,19,40
219,67,61,226,368,31,18,41
233,65,55,202,369,30,17,41
198,44,65,236,285,36,22,43
165,48,60,234,295,36,22,42
134,54,58,235,299,37,23,35
136,51,45,226,315,38,23,33
124,50,51,247,335,38,22,34
101,50,52,239,335,36,21,34
182,66,56,237,314,34,21,39
212,67,59,246,357,34,19,40
219,67,61,226,368,31,18,41
233,65,55,202,369,30,17,41
246,66,54,221,352,29,24,40
202,44,50,233,325,30,24,36
172,43,62,245,268,30,28,38
165,44,59,249,318,31,27,41
139,48,65,264,345,33,28,39
116,47,67,295,355,32,23,38
98,48,67,287,369,32,23,37
93,45,57,244,373,30,18,32
98,45,54,234,294,29,18,31
94,41,50,252,242,31,20,31
116,40,45,193,209,34,18,33
110,43,47,200,227,34,19,32
112,40,42,206,253,37,22,30
137,43,44,222,301,39,23,32
206,60,43,202,324,39,24,37
201,61,45,204,331,41,25,36
222,59,42,192,330,40,25,37
234,60,44,206,311,45,22,39
223,58,41,186,321,47,24,37
164,41,40,176,301,44,24,32
116,40,45,193,209,34,18,33
110,43,47,200,227,34,19,32
112,40,42,206,253,37,22,30
137,43,44,222,301,39,23,32
206,60,43,202,324,39,24,37
201,61,45,204,331,41,25,36
222,59,42,192,330,40,25,37
234,60,44,206,311,45,22,39
223,58,41,186,321,47,24,37
164,41,40,176,301,44,24,32
182,40,41,196,301,40,23,33
191,42,52,207,286,42,25,35
180,40,61,242,315,36,25,35
171,38,63,269,290,32,24,34
176,39,63,262,284,31,21,33
150,41,61,268,295,31,22,31
101,42,53,275,337,30,23,28
111,40,43,246,316,26,23,28
114,43,40,249,320,29,24,28
101,41,44,293,341,29,24,29
95,38,49,305,320,27,24,28
118,38,46,295,270,29,21,30
114,42,44,281,302,31,23,28
119,42,46,254,296,29,21,30
127,43,46,199,266,31,21,30
148,46,42,234,265,32,21,35
143,45,49,243,307,31,21,38
139,41,51,279,314,32,20,39
134,39,53,283,299,37,23,36
148,39,53,285,367,37,23,38
95,38,49,305,320,27,24,28
118,38,46,295,270,29,21,30
114,42,44,281,302,31,23,28
119,42,46,254,296,29,21,30
127,43,46,199,266,31,21,30
148,46,42,234,265,32,21,35
143,45,49,243,307,31,21,38
139,41,51,279,314,32,20,39
134,39,53,283,299,37,23,36
148,39,53,285,367,37,23,38
169,43,54,233,365,43,24,41
167,45,50,229,345,42,24,38
166,47,51,198,309,42,23,36
181,46,52,228,313,36,21,37
180,47,51,243,227,36,21,34
173,41,52,252,218,29,20,29
165,39,49,270,385,31,20,27
167,35,45,280,395,32,21,28
165,40,40,257,387,35,22,26
152,41,37,256,395,34,22,26
139,39,36,229,397,34,21,23
152,37,40,222,255,32,21,24
143,41,45,210,276,29,21,25
123,38,50,221,292,28,19,27
127,36,52,243,289,25,19,27
105,40,55,245,295,27,20,27
93,38,56,288,307,29,22,28
96,39,53,278,276,29,21,27
100,40,53,260,252,30,22,27
87,41,52,241,251,30,22,25
139,39,36,229,397,34,21,23
152,37,40,222,255,32,21,24
143,41,45,210,276,29,21,25
123,38,50,221,292,28,19,27
127,36,52,243,289,25,19,27
105,40,55,245,295,27,20,27
93,38,56,288,307,29,22,28
96,39,53,278,276,29,21,27
100,40,53,260,252,30,22,27
87,41,52,241,251,30,22,25
100,39,55,305,269,31,25,25
112,52,53,243,343,33,21,25
112,50,56,257,358,35,24,24
108,46,57,306,377,37,23,25
110,46,59,314,407,40,24,25
91,44,51,277,413,38,22,25
60,33,51,287,311,37,22,24
68,34,48,294,287,35,20,23
71,33,42,265,266,31,19,21
89,33,35,244,240,30,18,23
114,39,36,231,243,29,18,25
116,38,37,224,262,27,18,24
112,39,38,234,295,28,17,27
134,39,44,210,295,26,18,30
134,39,47,204,315,27,20,32
131,35,47,181,318,28,19,30
153,37,45,186,346,33,19,32
161,39,45,186,350,35,21,32
142,38,41,185,357,35,19,30
151,39,41,184,324,36,18,30
114,39,36,231,243,29,18,25
116,38,37,224,262,27,18,24
112,39,38,234,295,28,17,27
134,39,44,210,295,26,18,30
134,39,47,204,315,27,20,32
131,35,47,181,318,28,19,30
153,37,45,186,346,33,19,32
161,39,45,186,350,35,21,32
142,38,41,185,357,35,19,30
151,39,41,184,324,36,18,30
137,37,45,213,308,35,16,30
120,35,47,219,334,30,17,29
111,32,48,199,363,30,16,28
116,32,50,211,361,31,21,28
94,30,53,224,369,30,22,26
104,30,48,200,356,31,22,26
97,32,46,195,315,31,22,28
106,31,43,174,246,29,23,28
104,31,40,185,269,28,19,26
99,33,38,195,276,28,18,24
86,33,38,236,305,27,21,23
80,31,41,253,280,30,19,21
80,38,40,253,288,32,22,18
77,42,39,242,290,32,24,22
111,44,40,218,266,31,27,26
119,44,41,189,281,31,27,25
134,45,44,181,293,33,27,27
124,40,56,234,302,31,23,28
128,38,60,234,278,30,22,27
134,37,58,263,286,30,20,25
86,33,38,236,305,27,21,23
80,31,41,253,280,30,19,21
80,38,40,253,288,32,22,18
77,42,39,242,290,32,24,22
111,44,40,218,266,31,27,26
119,44,41,189,281,31,27,25
134,45,44,181,293,33,27,27
124,40,56,234,302,31,23,28
128,38,60,234,278,30,22,27
134,37,58,263,286,30,20,25
148,39,56,255,251,30,20,33
139,40,56,243,235,27,21,35
140,39,49,200,230,28,21,34
142,37,47,191,233,27,20,35
124,37,53,149,222,29,19,35
105,35,53,135,216,29,18,28
99,32,51,116,204,26,17,23
94,31,49,119,170,26,18,23
81,30,49,130,146,26,17,20
55,26,43,139,193,24,17,17
79,32,47,170,176,22,18,21
94,32,44,226,184,24,17,23
127,36,44,237,212,23,20,27
161,39,41,254,237,26,21,32
175,43,45,271,229,24,21,34
168,39,49,263,248,24,21,33
165,38,50,238,259,22,20,33
158,41,55,284,260,25,18,33
202,49,55,270,254,26,17,36
207,46,52,299,280,25,17,37
79,32,47,170,176,22,18,21
94,32,44,226,184,24,17,23
127,36,44,237,212,23,20,27
161,39,41,254,237,26,21,32
175,43,45,271,229,24,21,34
168,39,49,263,248,24,21,33
165,38,50,238,259,22,20,33
158,41,55,284,260,25,18,33
202,49,55,270,254,26,17,36
207,46,52,299,280,25,17,37
206,49,45,297,271,27,19,38
206,55,51,297,273,32,21,39
200,52,45,276,286,34,21,38
121,42,46,284,293,34,21,31
98,43,44,294,324,35,21,32
97,41,47,304,373,35,20,28
101,35,45,296,381,33,20,27
88,35,46,268,373,31,20,27
87,34,43,282,394,31,21,28
82,31,45,218,339,33,21,26
76,32,42,213,296,33,22,25
67,30,46,231,343,34,20,24
69,33,47,247,354,34,21,23
79,32,49,214,328,31,18,22
92,42,49,255,349,29,18,22
91,45,51,257,373,29,17,21
101,50,49,237,319,29,18,23
105,47,50,231,287,29,18,25
116,48,51,283,314,33,19,23
108,40,52,267,300,33,19,24
76,32,42,213,296,33,22,25
67,30,46,231,343,34,20,24
69,33,47,247,354,34,21,23
79,32,49,214,328,31,18,22
92,42,49,255,349,29,18,22
91,45,51,257,373,29,17,21
101,50,49,237,319,29,18,23
105,47,50,231,287,29,18,25
116,48,51,283,314,33,19,23
108,40,52,267,300,33,19,24
116,36,56,259,261,34,18,29
108,30,51,325,260,31,17,27
101,30,49,329,291,39,17,26
81,32,47,322,248,41,18,27
80,34,49,322,245,41,20,25
66,35,50,335,254,40,21,20
54,38,60,305,359,59,22,20
56,47,83,332,381,74,27,27
52,49,92,350,424,77,26,30
58,48,91,484,479,80,25,30
61,59,116,506,548,85,32,36
62,61,126,528,608,139,41,41
62,61,126,600,692,147,43,38
62,64,142,685,815,153,49,39
55,75,172,759,856,188,54,45
55,73,162,787,863,200,58,45
54,78,165,790,888,167,57,45
52,79,164,794,931,173,56,44
52,79,178,824,873,170,53,44
46,79,167,734,880,148,52,45
61,59,116,506,548,85,32,36
62,61,126,528,608,139,41,41
62,61,126,600,692,147,43,38
62,64,142,685,815,153,49,39
55,75,172,759,856,188,54,45
55,73,162,787,863,200,58,45
54,78,165,790,888,167,57,45
52,79,164,794,931,173,56,44
52,79,178,824,873,170,53,44
46,79,167,734,880,148,52,45
41,81,190,851,873,142,46,42
42,77,187,926,840,147,43,40
45,81,180,921,741,142,43,44
50,81,170,899,700,163,47,48
50,79,159,883,628,158,45,46
52,74,130,784,617,152,43,46
50,77,130,690,613,166,42,45
47,72,132,680,667,163,47,42
51,77,168,745,804,149,43,39
50,81,192,916,857,150,41,35
52,81,196,933,839,155,44,38
72,104,242,954,892,146,58,61
73,106,244,1074,891,149,60,63
74,110,239,1105,876,163,64,67
76,108,229,1075,904,183,68,71
76,114,257,1135,1025,201,81,74
68,106,240,1176,1052,227,81,68
68,102,241,1209,1087,225,80,68
68,103,246,1185,1033,223,83,69
76,120,282,1285,1128,239,93,75
313,83,37,76,209,98,30,63
316,75,34,74,192,98,32,63
304,65,35,71,201,83,29,64
305,65,37,88,265,71,27,62
311,64,40,86,275,59,26,65
249,52,38,90,306,49,24,55
307,55,36,85,302,36,27,68
328,62,35,88,327,34,28,66
328,54,33,75,341,55,28,62
316,60,30,85,371,59,30,62
306,60,34,103,366,62,29,64
271,64,35,128,395,60,26,52
238,58,36,129,396,60,24,54
232,63,37,128,354,44,26,56
221,59,38,122,325,37,24,57
250,61,39,98,277,39,24,55
236,54,37,62,247,40,25,56
234,55,34,55,202,43,26,51
243,52,39,85,240,42,21,51
235,48,39,87,244,43,22,47
191,45,37,87,263,48,23,42
193,47,38,92,281,48,21,41
228,59,38,103,302,48,21,41
213,56,36,83,299,50,22,36
225,58,37,75,303,50,22,36
222,54,34,82,331,40,21,33
239,65,34,75,321,39,22,38
203,50,35,59,302,46,22,36
201,50,31,56,287,42,22,35
200,48,30,60,288,40,20,34
191,45,37,87,263,48,23,42
193,47,38,92,281,48,21,41
228,59,38,103,302,48,21,41
213,56,36,83,299,50,22,36
225,58,37,75,303,50,22,36
222,54,34,82,331,40,21,33
239,65,34,75,321,39,22,38
203,50,35,59,302,46,22,36
201,50,31,56,287,42,22,35
200,48,30,60,288,40,20,34
236,58,30,55,263,40,20,39
202,48,31,58,246,39,18,34
212,54,32,62,271,28,17,36
219,56,36,59,252,43,17,38
206,57,34,55,228,46,19,40
153,48,34,54,200,48,19,35
171,48,32,53,204,50,19,33
190,43,31,56,185,58,20,40
184,40,27,53,175,49,20,38
189,40,26,65,205,56,19,39
191,36,28,66,198,55,20,39
176,31,29,69,244,57,21,41
160,31,31,67,231,50,20,36
180,32,32,70,231,48,18,40
178,31,30,59,228,39,18,43
175,34,34,57,231,38,16,43
182,36,37,58,208,40,18,44
165,34,36,49,204,39,19,40
148,37,39,58,229,41,20,38
159,40,41,60,215,39,20,38
191,36,28,66,198,55,20,39
176,31,29,69,244,57,21,41
160,31,31,67,231,50,20,36
180,32,32,70,231,48,18,40
178,31,30,59,228,39,18,43
175,34,34,57,231,38,16,43
182,36,37,58,208,40,18,44
165,34,36,49,204,39,19,40
148,37,39,58,229,41,20,38
159,40,41,60,215,39,20,38
179,42,37,70,262,43,23,38
163,42,34,71,238,46,23,42
171,41,33,74,247,48,22,43
177,43,29,65,232,47,22,46
160,40,27,68,287,45,21,42
143,37,27,60,261,43,18,41
142,35,25,53,260,29,16,33
137,38,25,55,265,25,17,31
132,41,33,57,286,42,17,26
138,43,31,53,238,46,17,28
163,45,30,52,261,48,19,36
157,44,32,64,260,52,19,37
163,44,31,69,272,70,19,39
151,38,25,68,263,63,18,39
177,46,32,72,280,61,20,39
168,48,34,73,275,60,20,31
169,47,37,65,285,62,20,31
180,53,38,56,281,46,19,32
194,53,36,62,292,43,18,32
218,55,31,62,324,46,16,37
163,45,30,52,261,48,19,36
157,44,32,64,260,52,19,37
163,44,31,69,272,70,19,39
151,38,25,68,263,63,18,39
177,46,32,72,280,61,20,39
168,48,34,73,275,60,20,31
169,47,37,65,285,62,20,31
180,53,38,56,281,46,19,32
194,53,36,62,292,43,18,32
218,55,31,62,324,46,16,37
215,54,34,61,311,46,15,39
221,54,30,60,302,46,18,38
215,48,33,61,288,44,18,38
219,49,33,52,282,46,18,42
169,37,35,46,215,45,20,36
183,43,36,44,193,45,20,37
230,62,37,44,194,41,18,40
275,68,39,49,193,44,19,48
277,68,40,56,269,39,19,47
309,74,40,60,265,41,17,48
299,72,35,59,267,52,16,47
264,58,37,79,314,50,17,45
219,53,29,75,313,48,15,34
203,55,29,70,240,49,16,29
152,49,30,65,252,46,17,27
146,49,30,76,285,42,18,30
137,47,29,59,278,42,19,31
175,51,30,61,302,58,20,35
171,48,32,63,318,87,21,35
160,45,30,71,323,91,21,34
299,72,35,59,267,52,16,47
264,58,37,79,314,50,17,45
219,53,29,75,313,48,15,34
203,55,29,70,240,49,16,29
152,49,30,65,252,46,17,27
146,49,30,76,285,42,18,30
137,47,29,59,278,42,19,31
175,51,30,61,302,58,20,35
171,48,32,63,318,87,21,35
160,45,30,71,323,91,21,34
168,45,33,58,288,90,22,31
172,44,31,55,268,91,21,32
128,36,35,65,270,82,20,29
132,37,33,66,270,56,20,29
148,38,35,60,264,49,19,30
147,35,33,60,282,64,21,33
139,34,34,63,316,72,21,31
138,37,33,51,298,75,22,30
140,37,31,58,278,71,20,28
123,44,36,61,270,85,22,32
108,47,42,65,254,74,20,29
110,49,44,71,267,81,19,31
93,43,43,69,285,92,19,32
95,47,44,69,286,94,20,32
113,44,40,70,301,82,18,27
122,40,35,72,347,86,18,28
122,38,33,64,285,71,17,26
135,42,35,63,262,52,16,25
132,36,34,56,256,79,21,29
143,33,34,54,243,92,24,33
108,47,42,65,254,74,20,29
110,49,44,71,267,81,19,31
93,43,43,69,285,92,19,32
95,47,44,69,286,94,20,32
113,44,40,70,301,82,18,27
122,40,35,72,347,86,18,28
122,38,33,64,285,71,17,26
135,42,35,63,262,52,16,25
132,36,34,56,256,79,21,29
143,33,34,54,243,92,24,33
163,49,35,71,251,95,24,34
168,52,33,76,256,95,25,35
175,52,31,77,278,96,26,37
176,54,32,77,267,75,23,36
169,54,31,83,337,75,22,33
144,42,29,69,297,71,22,30
137,37,27,71,317,73,22,29
142,36,26,73,333,71,23,33
151,37,24,79,341,73,22,32
147,37,25,78,304,55,21,35
159,39,29,83,312,86,20,39
196,45,31,76,303,90,22,43
186,44,32,74,280,98,20,39
177,42,33,72,303,98,19,39
203,45,34,64,278,97,20,39
205,51,31,56,280,66,21,39
172,48,33,64,290,76,19,34
164,47,34,61,271,70,19,38
159,47,36,90,288,71,19,38
116,45,37,99,291,96,17,33
159,39,29,83,312,86,20,39
196,45,31,76,303,90,22,43
186,44,32,74,280,98,20,39
177,42,33,72,303,98,19,39
203,45,34,64,278,97,20,39
205,51,31,56,280,66,21,39
172,48,33,64,290,76,19,34
164,47,34,61,271,70,19,38
159,47,36,90,288,71,19,38
116,45,37,99,291,96,17,33
151,35,37,98,259,97,16,34
153,34,35,96,254,102,18,34
160,39,34,98,267,102,18,32
169,39,33,70,239,106,21,33
174,39,32,78,284,86,20,34
151,38,32,78,291,83,20,37
147,39,33,79,291,66,19,37
159,37,31,84,304,68,21,36
192,47,27,86,286,59,19,38
196,49,28,88,289,75,19,38
184,48,25,89,296,82,20,33
186,48,25,91,298,80,21,34
170,49,26,86,270,76,20,32
129,38,26,86,276,80,22,32
106,35,24,68,239,102,22,32
109,36,24,65,226,98,22,34
113,42,25,60,195,96,21,34
109,39,24,59,203,96,21,34
108,40,26,61,208,92,19,30
130,45,29,56,177,62,18,30
184,48,25,89,296,82,20,33
186,48,25,91,298,80,21,34
170,49,26,86,270,76,20,32
129,38,26,86,276,80,22,32
106,35,24,68,239,102,22,32
109,36,24,65,226,98,22,34
113,42,25,60,195,96,21,34
109,39,24,59,203,96,21,34
108,40,26,61,208,92,19,30
130,45,29,56,177,62,18,30
131,44,30,60,206,72,18,27
127,41,29,61,234,87,18,30
131,41,28,63,250,91,18,31
155,47,27,59,231,101,20,31
184,50,28,60,252,99,19,38
187,53,31,62,256,105,20,38
186,53,31,63,236,99,21,38
188,53,34,59,236,104,21,37
171,50,35,59,269,96,20,37
125,40,34,59,277,89,20,30
121,38,30,55,288,79,19,28
132,36,29,51,293,79,18,27
181,44,27,56,294,73,17,29
182,42,27,57,295,74,15,34
179,48,35,78,293,75,16,33
180,48,39,84,271,83,19,34
182,48,38,81,256,103,19,34
127,40,39,84,259,104,19,31
118,42,41,93,238,108,21,26
120,36,33,80,264,107,20,26
121,38,30,55,288,79,19,28
132,36,29,51,293,79,18,27
181,44,27,56,294,73,17,29
182,42,27,57,295,74,15,34
179,48,35,78,293,75,16,33
180,48,39,84,271,83,19,34
182,48,38,81,256,103,19,34
127,40,39,84,259,104,19,31
118,42,41,93,238,108,21,26
120,36,33,80,264,107,20,26
121,37,29,73,275,102,19,25
106,39,33,80,288,86,18,25
110,39,34,74,273,90,20,26
109,35,31,65,269,85,19,27
113,36,33,67,230,90,22,29
108,35,35,69,250,87,22,31
108,37,34,65,282,92,22,31
97,39,35,67,279,88,21,30
89,39,36,62,277,115,25,29
88,41,36,69,281,111,24,28
87,40,33,71,252,116,23,26
76,34,32,73,224,108,23,24
85,33,34,79,319,108,24,23
104,39,33,87,335,82,21,23
105,36,31,107,336,86,20,26
108,34,32,107,332,89,22,29
121,34,31,105,324,99,21,30
126,34,26,103,282,95,20,32
120,28,25,102,290,87,21,31
139,33,24,76,287,109,21,30
87,40,33,71,252,116,23,26
76,34,32,73,224,108,23,24
85,33,34,79,319,108,24,23
104,39,33,87,335,82,21,23
105,36,31,107,336,86,20,26
108,34,32,107,332,89,22,29
121,34,31,105,324,99,21,30
126,34,26,103,282,95,20,32
120,28,25,102,290,87,21,31
139,33,24,76,287,109,21,30
166,41,27,75,296,112,20,27
160,42,27,75,286,105,20,28
163,45,27,69,230,105,20,28
163,45,29,68,255,112,21,27
161,46,28,59,242,100,22,30
131,40,26,76,233,96,21,28
129,41,28,83,247,101,21,26
113,38,31,94,265,104,22,26
105,39,32,118,246,107,20,26
65,31,33,146,301,165,19,21
62,29,32,139,298,171,21,22
67,32,29,143,304,171,20,21
78,33,30,147,343,186,20,22
123,31,32,127,332,189,21,30
133,34,35,94,296,170,21,32
141,38,37,90,309,184,22,32
138,37,39,88,304,181,23,33
137,35,36,74,251,178,25,34
99,35,34,82,271,212,26,28
83,33,36,99,290,196,26,26
62,29,32,139,298,171,21,22
67,32,29,143,304,171,20,21
78,33,30,147,343,186,20,22
123,31,32,127,332,189,21,30
133,34,35,94,296,170,21,32
141,38,37,90,309,184,22,32
138,37,39,88,304,181,23,33
137,35,36,74,251,178,25,34
99,35,34,82,271,212,26,28
83,33,36,99,290,196,26,26
57,30,37,125,339,192,24,24
51,28,36,123,366,216,25,24
36,28,39,215,361,259,24,21
29,28,42,243,356,257,22,19
28,29,41,275,377,257,22,17
26,31,47,281,356,276,24,18
26,31,51,288,349,307,24,20
27,32,53,313,384,325,27,21
26,30,53,467,421,323,28,22
29,31,69,524,415,327,31,25
35,41,79,566,396,313,31,31
40,52,90,575,441,270,33,34
43,58,114,604,493,204,35,36
45,67,125,538,476,176,35,38
46,71,121,488,478,164,35,38
42,66,122,531,506,147,34,34
36,60,121,550,462,176,31,32
31,55,111,625,481,182,28,29
30,53,111,646,539,220,30,27
27,56,132,672,540,250,36,27
35,41,79,566,396,313,31,31
40,52,90,575,441,270,33,34
43,58,114,604,493,204,35,36
45,67,125,538,476,176,35,38
46,71,121,488,478,164,35,38
42,66,122,531,506,147,34,34
36,60,121,550,462,176,31,32
31,55,111,625,481,182,28,29
30,53,111,646,539,220,30,27
27,56,132,672,540,250,36,27
39,67,133,654,566,259,43,37
40,67,137,714,650,245,46,37
46,79,158,799,629,244,49,41
56,95,181,793,631,224,60,53
64,109,201,870,653,210,60,58
72,119,218,979,811,284,60,62
72,122,219,985,792,290,64,64
70,122,232,972,903,308,63,63
65,112,226,1085,955,305,53,57
68,106,207,1107,1050,301,57,60
68,101,205,1131,999,292,68,63
76,114,241,1274,1026,314,67,67
79,117,275,1254,965,318,69,67
88,147,376,1290,1005,393,76,76
93,150,408,1319,1068,450,83,83
96,169,443,1304,1039,484,86,85
104,189,482,1295,1031,502,107,94
110,203,499,1267,1080,559,117,100
113,199,453,1165,1153,537,122,103
113,208,442,1155,1044,526,120,98
358,97,87,436,383,78,39,64
362,88,88,442,386,81,38,62
344,87,88,438,378,78,34,67
346,86,87,377,388,56,28,71
347,76,64,296,343,53,34,71
356,78,58,269,363,46,33,76
350,80,72,262,364,41,36,78
372,83,77,303,392,68,38,85
361,93,79,324,406,69,39,82
404,107,82,312,355,74,39,93
389,104,100,338,338,76,37,89
373,105,95,348,344,77,35,88
315,103,94,324,339,54,33,69
345,94,93,321,330,51,35,72
312,84,92,355,349,75,35,67
331,90,72,334,344,74,34,67
333,90,67,319,329,79,35,69
316,85,73,362,340,83,35,66
263,82,72,358,347,84,31,63
221,73,73,309,344,62,27,50
247,72,69,279,312,66,28,60
243,62,70,274,369,60,28,62
260,64,60,211,371,56,27,61
268,67,57,198,393,73,29,62
268,62,57,260,385,71,30,62
223,48,58,259,408,76,30,51
232,60,57,270,423,77,31,42
247,57,62,263,387,76,32,58
255,55,64,275,332,60,30,59
272,74,74,273,359,56,29,60
247,72,69,279,312,66,28,60
243,62,70,274,369,60,28,62
260,64,60,211,371,56,27,61
268,67,57,198,393,73,29,62
268,62,57,260,385,71,30,62
223,48,58,259,408,76,30,51
232,60,57,270,423,77,31,42
247,57,62,263,387,76,32,58
255,55,64,275,332,60,30,59
272,74,74,273,359,56,29,60
263,75,78,276,345,69,28,57
268,69,84,294,363,75,27,61
271,72,85,319,382,83,31,53
254,72,85,312,384,82,32,53
236,54,75,256,370,82,34,52
247,56,68,273,378,61,33,54
251,58,65,264,279,55,32,55
214,58,65,260,247,48,27,52
243,73,65,249,253,65,28,57
264,77,60,253,230,67,26,57
264,75,64,297,225,67,28,61
254,74,57,283,308,65,30,58
267,73,65,359,348,63,29,57
251,60,72,398,377,48,29,50
225,56,72,434,417,44,31,48
210,54,70,386,410,68,31,44
200,57,73,380,348,73,30,41
176,57,63,314,340,74,30,39
176,60,57,265,299,73,29,39
176,57,55,196,234,72,26,42
264,75,64,297,225,67,28,61
254,74,57,283,308,65,30,58
267,73,65,359,348,63,29,57
251,60,72,398,377,48,29,50
225,56,72,434,417,44,31,48
210,54,70,386,410,68,31,44
200,57,73,380,348,73,30,41
176,57,63,314,340,74,30,39
176,60,57,265,299,73,29,39
176,57,55,196,234,72,26,42
187,58,55,214,237,53,25,44
188,52,56,281,242,46,30,46
213,57,54,273,237,60,31,51
197,51,54,321,286,81,33,50
208,60,66,341,335,92,33,54
232,71,66,329,329,92,32,54
235,72,62,341,330,94,29,52
230,67,63,333,326,86,28,50
245,69,62,288,311,70,27,49
230,66,49,301,274,57,27,39
193,52,54,313,273,55,27,35
172,50,56,239,270,46,24,33
142,47,53,221,265,42,24,30
175,54,56,240,247,37,23,38
165,51,59,225,233,59,25,42
165,51,56,229,227,61,26,42
181,53,53,246,294,62,25,43
200,54,59,292,264,62,28,48
174,46,60,332,328,66,28,47
181,47,58,317,327,48,24,47
193,52,54,313,273,55,27,35
172,50,56,239,270,46,24,33
142,47,53,221,265,42,24,30
175,54,56,240,247,37,23,38
165,51,59,225,233,59,25,42
165,51,56,229,227,61,26,42
181,53,53,246,294,62,25,43
200,54,59,292,264,62,28,48
174,46,60,332,328,66,28,47
181,47,58,317,327,48,24,47
191,49,57,348,341,71,23,48
185,45,56,333,324,71,25,51
169,43,48,308,347,72,21,45
201,45,49,272,353,69,22,51
198,41,51,299,374,75,27,50
210,42,49,241,362,58,31,51
211,43,49,276,348,59,31,49
251,56,55,294,350,56,31,54
242,53,51,296,307,61,31,47
260,59,60,333,279,77,28,48
251,65,65,355,301,78,26,45
247,72,65,353,296,81,26,46
218,61,63,330,285,83,28,42
215,71,62,348,272,78,29,39
202,68,53,292,291,59,30,37
200,61,52,292,286,54,29,36
204,54,54,274,286,50,29,33
192,59,55,281,352,51,32,33
152,50,53,227,354,54,30,30
139,51,56,218,337,52,28,32
251,65,65,355,301,78,26,45
247,72,65,353,296,81,26,46
218,61,63,330,285,83,28,42
215,71,62,348,272,78,29,39
202,68,53,292,291,59,30,37
200,61,52,292,286,54,29,36
204,54,54,274,286,50,29,33
192,59,55,281,352,51,32,33
152,50,53,227,354,54,30,30
139,51,56,218,337,52,28,32
126,51,53,246,340,51,31,34
132,50,58,247,405,55,32,32
135,45,56,228,356,60,28,29
154,42,59,260,346,62,29,35
163,37,59,274,346,67,28,36
