emg0,emg1,emg2,emg3,emg4,emg5,emg6,emg7
123,205,32,72,444,93,66,105
127,252,37,72,410,89,95,161
138,261,40,70,411,88,112,166
141,244,42,65,417,87,125,188
171,296,58,60,375,100,154,303
191,354,62,55,310,100,159,330
203,397,64,52,301,97,199,423
228,429,66,54,275,111,206,532
272,490,70,54,192,108,223,635
376,560,66,71,184,102,307,695
455,601,80,88,161,123,430,861
472,581,79,93,146,128,473,859
513,612,81,92,94,120,476,839
515,629,91,95,94,123,483,777
550,624,94,84,89,124,472,958
522,611,90,71,109,108,461,965
550,662,108,83,206,139,480,1031
563,675,131,85,216,141,531,1095
614,776,155,95,236,142,612,1160
551,742,163,95,317,153,604,1063
521,749,169,107,399,167,553,1023
491,728,167,109,423,166,496,1017
451,701,154,115,472,184,523,994
369,520,121,103,500,191,424,990
332,524,119,106,466,182,424,926
335,460,112,93,410,168,423,845
334,427,103,75,347,145,436,775
302,397,99,64,279,118,341,701
292,419,101,64,252,101,347,652
302,386,84,60,257,100,315,656
521,749,169,107,399,167,553,1023
491,728,167,109,423,166,496,1017
451,701,154,115,472,184,523,994
369,520,121,103,500,191,424,990
332,524,119,106,466,182,424,926
335,460,112,93,410,168,423,845
334,427,103,75,347,145,436,775
302,397,99,64,279,118,341,701
292,419,101,64,252,101,347,652
302,386,84,60,257,100,315,656
318,384,74,59,264,103,285,667
312,359,65,58,273,98,243,646
300,400,58,57,293,102,237,677
300,394,55,52,281,99,247,660
296,415,52,46,307,93,233,657
273,429,57,44,309,89,235,648
281,451,66,48,315,95,239,628
283,399,62,49,287,89,250,578
317,473,76,56,300,88,259,612
306,439,84,59,259,85,269,571
293,425,80,57,228,81,277,567
290,391,74,56,231,74,284,561
282,390,77,56,249,75,270,583
227,286,65,65,393,92,227,493
231,305,59,78,451,98,261,516
243,346,61,83,510,94,253,494
233,386,59,82,520,97,244,515
284,432,62,82,520,93,247,486
289,409,60,78,438,73,255,503
282,432,63,70,425,73,211,504
293,425,80,57,228,81,277,567
290,391,74,56,231,74,284,561
282,390,77,56,249,75,270,583
227,286,65,65,393,92,227,493
231,305,59,78,451,98,261,516
243,346,61,83,510,94,253,494
233,386,59,82,520,97,244,515
284,432,62,82,520,93,247,486
289,409,60,78,438,73,255,503
282,432,63,70,425,73,211,504
276,412,60,64,349,78,221,484
260,452,68,64,352,78,236,481
219,436,66,63,368,86,216,520
233,484,74,60,363,84,203,517
230,482,75,61,306,80,203,488
224,458,75,61,350,86,195,497
239,481,73,61,342,87,183,481
246,491,71,62,351,88,202,460
222,472,63,62,405,96,206,467
229,514,70,58,418,93,202,463
232,515,68,58,398,91,207,528
219,449,73,61,402,87,231,506
196,418,70,59,392,83,226,547
230,460,75,58,292,74,228,560
259,402,69,63,310,94,242,570
274,406,72,74,345,114,230,507
294,419,66,75,327,122,188,530
304,419,67,74,305,119,193,507
298,387,70,75,298,121,186,495
275,368,64,73,387,116,159,481
232,515,68,58,398,91,207,528
219,449,73,61,402,87,231,506
196,418,70,59,392,83,226,547
230,460,75,58,292,74,228,560
259,402,69,63,310,94,242,570
274,406,72,74,345,114,230,507
294,419,66,75,327,122,188,530
304,419,67,74,305,119,193,507
298,387,70,75,298,121,186,495
275,368,64,73,387,116,159,481
269,368,62,63,364,96,188,537
256,321,58,59,358,86,203,543
243,319,63,61,372,87,203,503
242,346,58,67,379,89,206,479
219,376,58,61,271,72,211,453
211,397,63,60,250,63,182,413
204,400,68,67,333,77,188,407
231,404,68,75,401,98,184,445
214,347,61,66,398,99,187,459
242,319,61,66,378,102,200,473
252,299,56,68,372,107,212,470
249,295,51,61,300,98,214,483
227,283,46,52,279,94,202,474
228,276,48,58,292,100,243,452
244,257,47,58,312,102,248,488
273,269,46,53,306,94,235,499
275,275,50,61,375,101,232,461
276,275,56,60,327,87,256,511
282,326,58,59,317,74,217,531
242,328,56,58,296,67,208,547
252,299,56,68,372,107,212,470
249,295,51,61,300,98,214,483
227,283,46,52,279,94,202,474
228,276,48,58,292,100,243,452
244,257,47,58,312,102,248,488
273,269,46,53,306,94,235,499
275,275,50,61,375,101,232,461
276,275,56,60,327,87,256,511
282,326,58,59,317,74,217,531
242,328,56,58,296,67,208,547
214,341,61,57,316,72,236,557
213,335,55,47,252,67,233,584
214,327,48,46,239,70,210,561
244,316,45,57,285,92,205,581
244,340,52,59,341,102,196,539
242,324,49,60,332,101,172,497
247,354,53,63,323,104,173,492
253,394,54,66,325,106,179,445
226,404,58,71,342,98,186,402
235,404,57,72,328,91,225,383
228,414,57,73,333,94,241,415
205,376,52,70,336,85,227,416
229,346,53,67,317,78,224,435
229,294,49,58,270,76,241,492
278,356,55,54,257,71,210,525
285,393,52,70,244,67,187,503
298,404,54,81,216,65,204,516
294,404,52,81,224,73,219,505
291,415,54,80,247,73,203,441
269,359,50,87,297,88,214,394
228,414,57,73,333,94,241,415
205,376,52,70,336,85,227,416
229,346,53,67,317,78,224,435
229,294,49,58,270,76,241,492
278,356,55,54,257,71,210,525
285,393,52,70,244,67,187,503
298,404,54,81,216,65,204,516
294,404,52,81,224,73,219,505
291,415,54,80,247,73,203,441
269,359,50,87,297,88,214,394
266,284,49,74,300,89,231,445
254,318,50,64,325,96,223,451
250,333,56,73,338,103,229,475
257,348,54,72,326,102,227,482
237,382,59,64,293,94,232,557
234,385,62,63,294,90,218,528
256,385,64,64,275,87,221,535
256,396,59,59,253,80,203,532
251,399,64,61,252,80,217,559
256,380,61,63,211,78,198,571
275,404,59,63,216,86,200,590
264,388,59,60,279,87,244,549
249,372,64,55,316,84,253,533
238,339,60,45,296,81,262,518
237,300,56,44,294,84,265,406
204,254,54,47,281,81,258,382
211,273,53,61,232,88,223,426
240,263,47,60,177,85,220,406
232,246,41,59,167,76,182,370
276,279,58,100,288,192,238,568
275,404,59,63,216,86,200,590
264,388,59,60,279,87,244,549
249,372,64,55,316,84,253,533
238,339,60,45,296,81,262,518
237,300,56,44,294,84,265,406
204,254,54,47,281,81,258,382
211,273,53,61,232,88,223,426
240,263,47,60,177,85,220,406
232,246,41,59,167,76,182,370
276,279,58,100,288,192,238,568
285,330,69,114,401,210,243,564
274,298,67,107,396,207,238,562
250,297,67,107,394,210,216,565
262,327,73,126,436,230,221,616
203,302,60,100,365,149,154,461
223,311,49,84,245,124,193,481
220,316,49,85,239,126,197,474
215,308,52,86,264,127,208,473
225,307,58,60,193,89,203,457
244,328,60,52,184,89,199,506
245,282,60,50,168,84,160,498
264,306,61,47,173,80,159,522
288,316,59,54,213,77,157,535
275,301,47,50,262,76,175,498
253,282,49,58,371,82,180,431
213,277,49,61,405,88,181,420
202,243,51,64,415,88,183,411
180,247,51,57,387,85,181,427
179,273,53,75,448,93,160,426
188,299,53,75,377,85,176,454
245,282,60,50,168,84,160,498
264,306,61,47,173,80,159,522
288,316,59,54,213,77,157,535
275,301,47,50,262,76,175,498
253,282,49,58,371,82,180,431
213,277,49,61,405,88,181,420
202,243,51,64,415,88,183,411
180,247,51,57,387,85,181,427
179,273,53,75,448,93,160,426
188,299,53,75,377,85,176,454
257,337,58,74,372,81,168,448
256,364,60,77,408,86,150,392
263,369,60,78,481,90,170,404
265,368,56,63,411,80,176,396
289,456,67,66,409,80,190,398
252,437,64,63,387,75,198,405
268,467,64,64,406,76,195,456
274,486,69,67,339,76,174,457
282,474,72,68,332,81,176,490
247,388,58,57,323,75,153,519
224,400,58,60,361,76,145,507
236,385,56,58,326,71,174,498
218,388,54,60,329,72,181,452
232,413,54,61,335,73,185,471
239,421,56,63,369,76,209,458
280,405,56,62,361,87,215,457
253,397,63,54,331,96,232,430
260,367,61,47,342,94,251,544
237,375,60,44,337,96,260,527
255,379,63,45,342,96,264,512
224,400,58,60,361,76,145,507
236,385,56,58,326,71,174,498
218,388,54,60,329,72,181,452
232,413,54,61,335,73,185,471
239,421,56,63,369,76,209,458
280,405,56,62,361,87,215,457
253,397,63,54,331,96,232,430
260,367,61,47,342,94,251,544
237,375,60,44,337,96,260,527
255,379,63,45,342,96,264,512
218,448,63,50,326,84,260,526
215,422,58,54,317,75,232,538
199,418,60,57,303,69,222,445
234,405,62,58,322,63,222,493
252,394,57,58,272,63,194,485
268,367,62,54,244,63,214,525
271,368,63,52,242,69,232,567
283,371,65,52,205,73,232,574
266,352,61,50,155,77,226,536
260,371,63,46,208,75,222,585
274,338,60,43,229,83,203,556
282,350,54,44,227,74,183,508
269,359,49,45,228,70,194,511
307,386,55,45,230,68,182,492
287,367,57,54,314,76,174,435
261,357,57,57,321,73,179,436
288,377,63,57,314,77,178,446
298,372,64,52,308,76,150,459
266,335,59,52,318,74,166,510
261,325,55,49,254,64,183,490
274,338,60,43,229,83,203,556
282,350,54,44,227,74,183,508
269,359,49,45,228,70,194,511
307,386,55,45,230,68,182,492
287,367,57,54,314,76,174,435
261,357,57,57,321,73,179,436
288,377,63,57,314,77,178,446
298,372,64,52,308,76,150,459
266,335,59,52,318,74,166,510
261,325,55,49,254,64,183,490
258,332,51,53,245,63,186,449
220,301,48,53,256,62,187,491
251,301,48,53,257,66,202,461
268,309,54,53,244,70,189,486
274,310,57,67,375,80,179,494
290,385,59,65,389,81,167,554
298,384,55,65,414,81,165,530
256,371,53,64,424,86,158,518
230,385,58,63,429,84,170,444
239,382,53,43,284,77,172,430
240,288,56,43,252,73,178,364
235,284,59,44,205,72,191,351
250,323,66,52,216,67,202,394
240,330,63,64,333,71,211,450
220,341,64,63,346,72,207,462
216,364,64,59,357,77,210,472
237,399,66,62,379,76,203,485
232,373,58,55,366,81,178,464
246,374,53,44,272,83,168,414
249,378,57,45,243,80,191,523
240,288,56,43,252,73,178,364
235,284,59,44,205,72,191,351
250,323,66,52,216,67,202,394
240,330,63,64,333,71,211,450
220,341,64,63,346,72,207,462
216,364,64,59,357,77,210,472
237,399,66,62,379,76,203,485
232,373,58,55,366,81,178,464
246,374,53,44,272,83,168,414
249,378,57,45,243,80,191,523
254,359,56,46,240,77,196,541
256,368,55,41,285,87,194,517
251,410,60,48,296,80,198,519
242,421,65,51,291,77,204,532
244,405,64,50,290,77,189,445
246,423,73,52,289,81,221,488
217,386,72,54,209,78,237,483
251,381,73,50,306,81,239,534
279,354,71,47,319,77,255,525
327,384,73,48,328,77,256,498
317,375,58,45,324,78,222,427
332,375,56,44,319,71,194,457
321,396,53,46,210,75,195,452
288,437,54,47,191,72,155,463
271,411,50,48,185,70,141,463
307,417,52,50,174,61,138,502
299,421,55,54,220,63,173,528
300,377,55,49,224,67,170,535
317,332,49,48,207,70,203,527
281,344,52,45,210,76,213,544
317,375,58,45,324,78,222,427
332,375,56,44,319,71,194,457
321,396,53,46,210,75,195,452
288,437,54,47,191,72,155,463
271,411,50,48,185,70,141,463
307,417,52,50,174,61,138,502
299,421,55,54,220,63,173,528
300,377,55,49,224,67,170,535
317,332,49,48,207,70,203,527
281,344,52,45,210,76,213,544
223,316,48,43,211,80,212,517
215,319,47,39,165,79,209,513
205,362,48,46,149,72,233,484
181,376,51,53,152,73,233,505
196,366,48,52,130,68,220,508
210,372,48,52,143,68,219,509
203,372,48,51,146,67,204,485
217,362,48,48,217,62,187,469
285,382,51,46,238,60,162,418
278,395,53,48,238,56,173,411
284,421,59,46,235,64,174,415
297,448,57,47,237,62,166,391
281,407,53,45,174,60,152,371
213,371,49,44,157,61,146,384
212,358,51,43,178,67,196,405
208,346,48,48,176,61,197,425
186,379,55,48,166,64,209,476
211,400,60,49,167,65,211,524
257,426,60,46,157,75,233,555
282,437,59,50,145,69,217,558
284,421,59,46,235,64,174,415
297,448,57,47,237,62,166,391
281,407,53,45,174,60,152,371
213,371,49,44,157,61,146,384
212,358,51,43,178,67,196,405
208,346,48,48,176,61,197,425
186,379,55,48,166,64,209,476
211,400,60,49,167,65,211,524
257,426,60,46,157,75,233,555
282,437,59,50,145,69,217,558
285,438,61,50,133,71,232,634
298,376,62,50,140,76,227,641
315,371,58,50,146,87,235,665
294,318,55,48,175,78,230,668
266,289,53,45,180,84,199,663
278,282,51,41,182,80,198,605
280,288,52,45,177,75,207,544
240,273,56,51,178,66,191,488
222,315,58,52,154,66,175,459
226,312,57,50,160,76,196,448
198,275,55,61,181,84,179,394
217,229,54,60,192,88,227,428
219,206,49,56,188,85,231,454
209,116,47,63,363,106,228,429
199,113,75,210,703,296,214,401
194,142,144,447,838,315,212,376
130,138,148,470,944,350,142,316
119,149,171,554,1044,457,147,175
124,156,181,652,1052,487,141,153
131,163,187,681,933,419,141,141
32,83,24,61,301,62,59,193
30,81,25,61,220,50,62,200
29,79,30,52,204,49,62,207
27,48,32,46,202,52,61,207
28,41,32,44,181,57,61,157
56,62,35,46,164,58,102,256
141,75,35,30,117,60,142,347
189,83,30,33,91,57,146,445
309,94,32,42,57,56,152,550
514,108,33,45,55,57,168,606
595,102,38,50,58,61,178,635
654,122,53,63,77,78,266,732
664,154,64,65,77,86,309,851
714,250,74,62,75,89,333,893
625,295,77,61,77,93,345,950
564,359,90,66,79,97,374,998
489,384,88,58,62,88,313,946
486,401,95,61,69,88,356,930
358,378,88,62,66,81,356,1014
333,354,89,66,63,77,375,987
319,360,80,63,66,79,431,995
315,350,77,60,65,74,447,992
299,326,58,55,57,64,397,892
277,344,60,53,54,65,405,788
260,357,54,48,53,57,383,754
283,291,46,47,45,58,339,725
302,353,58,61,52,69,331,769
294,353,61,63,58,71,348,792
292,331,60,63,65,75,338,763
275,325,68,68,69,89,380,763
319,360,80,63,66,79,431,995
315,350,77,60,65,74,447,992
299,326,58,55,57,64,397,892
277,344,60,53,54,65,405,788
260,357,54,48,53,57,383,754
283,291,46,47,45,58,339,725
302,353,58,61,52,69,331,769
294,353,61,63,58,71,348,792
292,331,60,63,65,75,338,763
275,325,68,68,69,89,380,763
282,371,81,70,74,89,334,875
274,310,73,61,73,81,321,895
285,342,80,64,74,84,308,883
321,352,81,65,74,94,342,922
311,363,76,62,77,86,307,975
276,349,62,56,76,83,306,827
299,353,62,56,76,86,313,758
284,330,52,52,77,87,309,764
269,317,54,52,74,75,280,733
268,298,54,52,69,73,254,672
267,274,57,52,67,70,260,680
247,271,63,53,68,72,262,655
244,263,64,48,71,69,247,642
216,255,67,53,75,75,259,557
219,240,64,50,70,81,268,515
247,285,67,49,68,81,272,513
235,274,64,47,69,76,285,544
235,292,63,47,64,72,291,604
279,311,60,42,62,66,279,609
284,360,63,45,64,59,275,647
267,274,57,52,67,70,260,680
247,271,63,53,68,72,262,655
244,263,64,48,71,69,247,642
216,255,67,53,75,75,259,557
219,240,64,50,70,81,268,515
247,285,67,49,68,81,272,513
235,274,64,47,69,76,285,544
235,292,63,47,64,72,291,604
279,311,60,42,62,66,279,609
284,360,63,45,64,59,275,647
263,333,55,43,64,53,277,634
276,357,49,42,64,55,261,618
282,414,52,50,97,61,263,560
247,406,51,52,106,61,238,573
244,373,49,52,110,63,237,533
249,409,55,54,113,66,207,531
225,399,55,52,109,65,196,514
211,350,53,53,82,64,205,514
196,330,51,53,73,63,205,535
192,337,52,50,73,62,202,510
173,276,49,50,71,62,223,495
194,245,48,53,105,63,235,550
194,193,44,44,112,59,214,511
195,232,47,40,119,58,238,470
180,245,49,43,134,57,235,477
183,255,48,45,150,55,241,483
186,265,52,44,137,56,226,408
214,312,56,47,137,59,238,488
215,291,56,48,167,59,213,469
242,294,55,51,170,57,223,549
173,276,49,50,71,62,223,495
194,245,48,53,105,63,235,550
194,193,44,44,112,59,214,511
195,232,47,40,119,58,238,470
180,245,49,43,134,57,235,477
183,255,48,45,150,55,241,483
186,265,52,44,137,56,226,408
214,312,56,47,137,59,238,488
215,291,56,48,167,59,213,469
242,294,55,51,170,57,223,549
249,322,56,53,164,57,213,554
228,324,51,51,169,55,233,607
207,336,52,52,173,59,227,570
207,329,47,54,144,58,232,608
217,338,53,55,138,65,257,535
212,299,48,55,232,66,245,514
214,295,51,61,230,69,286,494
242,287,54,62,251,76,326,502
232,284,56,64,246,79,323,432
206,244,50,58,239,73,299,438
210,316,61,60,146,79,332,493
201,311,63,63,171,94,287,430
175,274,58,61,132,85,235,423
208,314,60,58,133,81,241,510
233,312,59,56,131,82,232,522
250,273,51,49,125,75,190,535
254,274,47,46,95,53,176,531
250,285,48,46,93,51,190,513
231,236,44,46,118,48,178,473
215,252,43,48,150,50,190,452
210,316,61,60,146,79,332,493
201,311,63,63,171,94,287,430
175,274,58,61,132,85,235,423
208,314,60,58,133,81,241,510
233,312,59,56,131,82,232,522
250,273,51,49,125,75,190,535
254,274,47,46,95,53,176,531
250,285,48,46,93,51,190,513
231,236,44,46,118,48,178,473
215,252,43,48,150,50,190,452
210,232,42,47,160,48,168,390
230,234,44,46,157,48,177,487
256,215,42,46,167,56,180,516
260,263,47,50,194,66,216,532
273,275,49,49,211,75,255,542
253,262,46,54,233,79,267,525
236,280,44,56,261,78,264,458
209,275,40,56,259,75,268,474
245,229,37,52,231,65,236,461
227,224,37,52,205,55,187,525
238,222,38,51,191,48,174,551
287,305,43,43,141,47,192,569
306,344,51,44,147,56,204,560
270,357,50,41,145,61,205,525
293,393,52,46,145,66,231,515
292,410,56,62,220,82,255,514
237,341,54,65,231,85,240,495
199,298,46,62,222,76,202,447
303,328,59,68,225,89,237,493
278,268,60,80,258,106,212,416
238,222,38,51,191,48,174,551
287,305,43,43,141,47,192,569
306,344,51,44,147,56,204,560
270,357,50,41,145,61,205,525
293,393,52,46,145,66,231,515
292,410,56,62,220,82,255,514
237,341,54,65,231,85,240,495
199,298,46,62,222,76,202,447
303,328,59,68,225,89,237,493
278,268,60,80,258,106,212,416
277,241,58,73,208,96,184,373
282,228,55,70,195,93,184,415
342,306,62,70,200,93,212,465
268,271,53,69,230,86,227,512
286,271,49,50,186,60,232,553
287,276,47,38,157,56,229,582
288,278,49,45,207,64,234,558
214,199,39,46,231,64,217,525
200,228,36,47,204,53,159,469
171,248,34,53,223,58,178,464
172,259,36,53,222,57,185,452
173,278,42,55,180,49,180,475
190,271,45,54,144,47,186,478
193,256,50,52,166,50,199,478
193,227,49,59,233,53,166,449
182,216,49,66,249,52,169,441
204,230,44,67,272,63,197,463
192,238,44,70,365,77,198,452
183,211,35,68,366,75,183,406
188,228,39,68,337,82,195,461
172,259,36,53,222,57,185,452
173,278,42,55,180,49,180,475
190,271,45,54,144,47,186,478
193,256,50,52,166,50,199,478
193,227,49,59,233,53,166,449
182,216,49,66,249,52,169,441
204,230,44,67,272,63,197,463
192,238,44,70,365,77,198,452
183,211,35,68,366,75,183,406
188,228,39,68,337,82,195,461
194,243,39,63,334,85,192,479
168,218,40,60,328,84,203,457
181,245,41,65,281,80,197,483
200,257,43,68,286,84,199,502
190,256,36,58,279,70,194,464
235,273,35,61,288,73,199,458
283,298,39,60,282,66,157,465
307,283,35,51,222,56,162,478
356,314,43,45,195,53,180,518
357,306,46,47,172,53,166,488
335,277,47,42,270,50,171,575
297,239,42,37,273,48,165,539
273,236,45,36,274,50,154,602
192,196,36,36,270,47,152,586
244,185,39,34,262,47,156,641
253,206,42,36,146,55,151,567
255,203,43,40,128,58,144,565
246,214,42,40,128,57,155,483
294,219,47,74,327,100,170,472
267,219,43,79,363,111,167,402
335,277,47,42,270,50,171,575
297,239,42,37,273,48,165,539
273,236,45,36,274,50,154,602
192,196,36,36,270,47,152,586
244,185,39,34,262,47,156,641
253,206,42,36,146,55,151,567
255,203,43,40,128,58,144,565
246,214,42,40,128,57,155,483
294,219,47,74,327,100,170,472
267,219,43,79,363,111,167,402
244,188,38,77,355,105,152,361
241,263,41,76,360,106,166,379
264,257,44,84,388,114,185,358
215,251,40,58,246,78,146,411
187,253,40,51,201,68,186,444
189,264,42,50,196,68,214,460
249,231,44,51,195,69,228,493
228,212,44,52,200,66,208,494
222,194,44,56,209,68,210,409
262,220,45,57,199,66,215,448
277,207,46,58,221,72,202,439
219,166,42,58,212,71,180,388
229,176,38,46,153,61,186,410
246,219,41,43,144,62,187,449
230,198,39,44,149,60,179,407
218,197,37,44,158,53,171,393
218,195,37,183,179,51,180,424
197,204,38,219,170,50,172,418
217,210,43,312,188,54,202,397
188,237,47,337,204,54,213,400
277,207,46,58,221,72,202,439
219,166,42,58,212,71,180,388
229,176,38,46,153,61,186,410
246,219,41,43,144,62,187,449
230,198,39,44,149,60,179,407
218,197,37,44,158,53,171,393
218,195,37,183,179,51,180,424
197,204,38,219,170,50,172,418
217,210,43,312,188,54,202,397
188,237,47,337,204,54,213,400
177,245,47,357,174,53,207,399
197,271,52,313,259,79,244,446
198,268,53,294,336,91,243,435
144,232,46,192,331,87,217,415
158,233,45,143,328,89,244,433
169,229,48,82,335,94,251,432
146,217,45,67,267,77,208,348
161,230,43,46,157,63,216,349
182,233,42,44,141,62,216,340
168,204,41,47,125,58,154,289
218,245,44,53,119,72,173,318
215,234,40,52,105,75,169,289
205,204,38,51,101,74,157,250
185,195,38,50,101,74,153,249
200,195,34,46,90,71,152,273
162,181,26,36,110,54,127,275
156,175,25,32,112,47,134,391
155,176,27,33,116,48,140,437
192,236,29,40,140,52,166,490
186,234,30,41,169,57,157,520
218,245,44,53,119,72,173,318
215,234,40,52,105,75,169,289
205,204,38,51,101,74,157,250
185,195,38,50,101,74,153,249
200,195,34,46,90,71,152,273
162,181,26,36,110,54,127,275
156,175,25,32,112,47,134,391
155,176,27,33,116,48,140,437
192,236,29,40,140,52,166,490
186,234,30,41,169,57,157,520
166,216,28,43,152,54,152,507
176,248,35,44,162,51,175,458
184,252,36,47,168,51,170,435
156,209,36,42,154,48,146,406
178,200,34,41,145,49,150,361
187,180,37,40,154,51,151,360
197,181,36,40,147,49,121,331
210,177,37,36,144,46,135,336
221,228,46,40,156,52,195,377
210,265,51,45,144,48,193,370
199,269,52,46,134,43,188,373
193,277,52,60,305,64,200,411
169,273,49,65,334,71,190,402
145,265,40,63,327,67,129,337
220,276,42,60,332,70,147,452
225,286,39,58,354,74,150,444
220,247,36,40,220,56,133,429
228,248,36,32,167,49,134,440
273,250,43,34,173,55,196,477
207,205,36,37,185,61,181,365
199,269,52,46,134,43,188,373
193,277,52,60,305,64,200,411
169,273,49,65,334,71,190,402
145,265,40,63,327,67,129,337
220,276,42,60,332,70,147,452
225,286,39,58,354,74,150,444
220,247,36,40,220,56,133,429
228,248,36,32,167,49,134,440
273,250,43,34,173,55,196,477
207,205,36,37,185,61,181,365
199,186,38,38,139,57,184,394
207,198,38,38,136,59,185,374
226,261,47,38,137,59,194,427
171,224,41,35,145,56,156,409
180,231,42,36,121,49,166,450
199,252,41,36,108,50,166,443
202,269,43,41,188,58,168,505
180,232,39,42,210,62,172,452
204,237,40,43,213,70,172,447
227,232,42,39,210,68,165,411
235,257,46,37,212,65,163,421
234,248,50,34,164,61,164,342
240,242,44,30,152,59,172,378
218,249,45,32,146,55,191,382
201,281,46,32,139,53,188,355
183,246,41,33,142,54,200,407
185,242,34,35,154,52,206,440
183,266,38,42,149,52,193,417
195,261,36,48,237,56,168,499
177,220,35,49,258,61,211,504
235,257,46,37,212,65,163,421
234,248,50,34,164,61,164,342
240,242,44,30,152,59,172,378
218,249,45,32,146,55,191,382
201,281,46,32,139,53,188,355
183,246,41,33,142,54,200,407
185,242,34,35,154,52,206,440
183,266,38,42,149,52,193,417
195,261,36,48,237,56,168,499
177,220,35,49,258,61,211,504
195,227,35,49,261,69,209,496
196,231,36,49,263,71,225,495
197,194,35,45,261,73,224,477
190,186,37,38,175,64,219,374
210,223,37,36,141,64,199,424
195,224,39,36,137,54,194,358
184,250,38,35,194,54,193,373
175,255,36,38,205,64,199,407
181,295,37,37,213,65,197,453
182,286,38,38,226,62,176,414
173,276,38,47,274,68,177,443
177,255,41,51,231,64,143,417
177,254,43,49,226,52,135,415
179,202,44,51,246,51,156,428
167,186,41,52,271,54,151,426
176,179,39,56,272,55,135,394
162,151,44,136,516,94,130,362
155,136,54,195,685,318,141,319
137,127,60,249,834,365,114,206
104,102,66,279,867,389,109,144
173,276,38,47,274,68,177,443
177,255,41,51,231,64,143,417
177,254,43,49,226,52,135,415
179,202,44,51,246,51,156,428
167,186,41,52,271,54,151,426
176,179,39,56,272,55,135,394
162,151,44,136,516,94,130,362
155,136,54,195,685,318,141,319
137,127,60,249,834,365,114,206
104,102,66,279,867,389,109,144
72,91,68,291,884,389,106,106
64,83,64,264,779,389,106,92
53,58,54,232,642,258,75,79
45,60,65,244,573,193,66,71
59,75,105,323,720,303,102,87
82,118,123,352,821,354,114,94
123,177,147,453,958,394,122,97
130,181,150,486,1051,422,124,92
131,191,148,484,1070,430,125,90
128,187,131,443,1092,373,108,121
118,174,118,451,1092,359,106,168
83,118,88,384,1085,329,97,205
79,124,83,346,1073,283,87,210
95,153,75,317,1052,274,87,210
115,241,61,283,985,233,72,196
113,248,52,234,947,191,58,161
112,251,51,174,864,163,54,157
111,250,51,166,846,167,68,259
102,226,49,141,824,164,77,270
80,146,39,147,779,152,77,272
69,104,39,64,309,79,34,72
61,87,36,57,350,82,41,93
69,110,37,57,344,88,49,127
72,117,59,54,343,83,48,133
74,105,59,50,341,78,48,128
72,102,59,54,352,82,50,125
66,107,58,47,269,76,47,111
63,94,57,56,305,76,40,68
72,101,36,62,340,91,41,78
67,124,33,65,346,92,42,111
81,135,28,62,322,79,50,151
127,190,35,64,320,80,100,177
222,209,39,60,274,76,131,261
253,246,47,56,214,62,151,349
279,281,53,52,151,60,171,595
300,290,59,55,120,63,215,683
308,281,57,59,107,71,234,754
292,292,56,56,95,74,287,863
320,294,55,56,61,79,330,865
331,292,53,56,60,82,356,808
400,328,65,66,76,106,389,935
463,338,70,61,73,96,390,970
481,389,82,69,80,96,427,1008
477,414,89,72,82,95,486,1095
475,454,93,78,85,103,510,1117
417,451,83,71,103,83,508,1080
363,489,86,76,119,90,545,1068
340,494,82,73,187,96,529,997
325,467,78,84,257,117,516,922
334,430,81,83,275,111,483,912
400,328,65,66,76,106,389,935
463,338,70,61,73,96,390,970
481,389,82,69,80,96,427,1008
477,414,89,72,82,95,486,1095
475,454,93,78,85,103,510,1117
417,451,83,71,103,83,508,1080
363,489,86,76,119,90,545,1068
340,494,82,73,187,96,529,997
325,467,78,84,257,117,516,922
334,430,81,83,275,111,483,912
335,437,82,83,316,113,467,863
321,412,79,88,399,123,423,835
292,351,71,87,391,120,374,804
262,398,68,75,355,97,293,894
223,419,67,90,464,118,322,816
240,402,68,97,449,124,332,747
258,427,65,92,412,115,336,858
259,463,76,104,519,138,351,824
294,484,76,103,525,139,366,772
302,444,68,89,453,125,357,798
278,445,67,80,461,116,317,848
240,393,64,77,429,109,307,691
277,420,61,60,274,77,304,781
248,355,64,63,270,74,267,722
268,362,64,61,241,60,250,749
278,428,68,62,186,60,266,710
277,436,71,62,248,63,264,755
241,367,63,67,352,71,264,690
243,365,57,63,404,75,282,686
214,359,59,65,402,73,257,625
278,445,67,80,461,116,317,848
240,393,64,77,429,109,307,691
277,420,61,60,274,77,304,781
248,355,64,63,270,74,267,722
268,362,64,61,241,60,250,749
278,428,68,62,186,60,266,710
277,436,71,62,248,63,264,755
241,367,63,67,352,71,264,690
243,365,57,63,404,75,282,686
214,359,59,65,402,73,257,625
205,286,56,72,429,82,265,605
245,298,55,75,504,93,271,580
237,309,56,80,467,92,262,556
232,286,57,83,429,95,244,529
252,292,56,82,430,95,262,527
251,264,54,82,412,93,260,562
220,280,53,81,343,83,245,567
236,272,53,75,322,75,237,543
231,312,51,79,354,68,262,554
253,327,47,79,377,69,250,557
262,318,45,72,392,64,230,516
267,294,48,74,353,78,243,467
271,301,47,71,357,85,245,477
283,264,48,61,324,87,233,482
269,289,55,59,292,86,236,519
248,331,60,58,272,86,243,483
236,319,60,52,268,72,223,507
232,302,59,60,282,63,218,515
218,306,60,63,329,65,196,508
186,298,55,80,411,75,225,455
262,318,45,72,392,64,230,516
267,294,48,74,353,78,243,467
271,301,47,71,357,85,245,477
283,264,48,61,324,87,233,482
269,289,55,59,292,86,236,519
248,331,60,58,272,86,243,483
236,319,60,52,268,72,223,507
232,302,59,60,282,63,218,515
218,306,60,63,329,65,196,508
186,298,55,80,411,75,225,455
197,272,56,89,441,79,220,448
199,326,59,88,426,78,229,461
197,340,58,91,457,87,231,559
211,340,57,93,423,89,224,581
218,343,56,78,341,84,210,580
220,327,49,73,306,77,213,597
239,300,41,85,366,94,236,591
223,326,41,88,332,86,226,492
216,350,41,85,368,83,254,446
213,308,39,85,362,78,239,516
221,326,41,90,412,92,266,528
222,288,40,81,375,76,236,501
233,309,42,75,435,78,247,499
224,290,38,75,417,76,219,487
239,304,38,77,432,81,242,531
222,311,43,67,421,68,206,526
214,312,41,62,422,65,222,523
223,284,51,54,318,63,278,548
225,273,51,48,299,60,281,534
235,269,51,51,277,62,275,468
221,326,41,90,412,92,266,528
222,288,40,81,375,76,236,501
233,309,42,75,435,78,247,499
224,290,38,75,417,76,219,487
239,304,38,77,432,81,242,531
222,311,43,67,421,68,206,526
214,312,41,62,422,65,222,523
223,284,51,54,318,63,278,548
225,273,51,48,299,60,281,534
235,269,51,51,277,62,275,468
238,243,49,49,190,64,277,431
232,242,50,52,166,68,272,494
215,202,38,53,193,68,220,460
230,204,40,59,215,80,232,502
188,189,40,55,251,77,232,494
202,196,42,55,260,75,221,495
197,211,47,51,249,71,218,452
218,203,48,49,226,69,226,467
209,203,46,44,205,59,215,533
221,200,48,53,235,70,222,521
209,195,46,54,354,72,236,516
217,205,40,55,359,74,241,489
228,270,43,54,366,77,227,515
274,274,43,55,374,77,221,446
282,277,43,46,334,66,202,416
287,296,47,47,194,61,194,490
295,288,47,57,241,70,202,541
268,234,43,56,236,65,188,521
220,253,42,58,219,64,201,512
215,251,38,64,243,67,183,524
209,195,46,54,354,72,236,516
217,205,40,55,359,74,241,489
228,270,43,54,366,77,227,515
274,274,43,55,374,77,221,446
282,277,43,46,334,66,202,416
287,296,47,47,194,61,194,490
295,288,47,57,241,70,202,541
268,234,43,56,236,65,188,521
220,253,42,58,219,64,201,512
215,251,38,64,243,67,183,524
212,232,35,65,279,71,185,462
199,272,36,55,239,59,168,435
209,292,38,58,247,58,165,413
215,268,40,62,280,63,146,406
216,292,47,61,334,65,177,393
219,293,47,60,325,63,170,419
231,261,46,64,339,73,179,413
246,288,49,67,349,82,189,420
266,312,48,61,316,78,211,437
254,285,42,54,245,75,197,451
279,300,44,53,225,78,213,521
294,305,48,50,221,75,217,503
274,252,44,44,190,66,215,517
271,246,49,54,222,69,213,534
279,278,49,60,208,65,207,516
244,257,46,66,357,80,213,469
239,240,44,76,386,77,208,493
267,301,53,84,407,78,250,523
244,272,48,88,451,82,233,483
227,240,48,86,451,82,231,468
279,300,44,53,225,78,213,521
294,305,48,50,221,75,217,503
274,252,44,44,190,66,215,517
271,246,49,54,222,69,213,534
279,278,49,60,208,65,207,516
244,257,46,66,357,80,213,469
239,240,44,76,386,77,208,493
267,301,53,84,407,78,250,523
244,272,48,88,451,82,233,483
227,240,48,86,451,82,231,468
257,335,58,87,352,83,263,512
225,341,60,103,449,111,262,527
192,288,53,110,465,122,222,469
186,293,53,102,410,117,217,461
214,320,56,104,413,120,237,503
177,206,44,102,423,113,176,393
166,240,46,80,267,84,210,375
178,288,49,68,293,75,224,452
216,317,56,75,315,78,229,512
189,338,55,73,320,75,227,479
209,349,56,67,297,68,230,492
255,366,54,64,305,69,206,530
248,333,50,62,261,65,199,535
227,301,42,53,241,61,196,468
236,306,50,60,250,69,186,509
216,290,48,59,254,69,184,508
193,283,47,66,358,78,187,469
203,291,46,87,471,106,175,401
191,293,46,90,475,107,180,395
241,268,44,88,464,104,217,381
209,349,56,67,297,68,230,492
255,366,54,64,305,69,206,530
248,333,50,62,261,65,199,535
227,301,42,53,241,61,196,468
236,306,50,60,250,69,186,509
216,290,48,59,254,69,184,508
193,283,47,66,358,78,187,469
203,291,46,87,471,106,175,401
191,293,46,90,475,107,180,395
241,268,44,88,464,104,217,381
254,288,48,92,494,109,222,401
229,233,45,88,431,102,202,347
239,291,55,61,262,68,210,380
269,344,55,57,241,70,214,443
242,334,47,51,247,64,166,433
244,342,46,46,220,62,170,450
255,355,48,47,191,58,167,460
261,344,40,65,313,71,183,473
255,298,40,72,366,73,178,432
276,305,42,70,361,73,178,462
271,304,40,67,342,69,204,459
283,328,40,66,341,69,209,486
264,280,39,53,297,67,198,454
259,277,41,48,251,72,208,507
213,269,42,59,316,85,230,499
200,241,41,59,319,84,193,475
170,173,40,55,319,83,183,487
193,197,41,67,399,90,202,513
176,189,40,71,409,84,187,448
168,152,33,62,358,69,150,387
271,304,40,67,342,69,204,459
283,328,40,66,341,69,209,486
264,280,39,53,297,67,198,454
259,277,41,48,251,72,208,507
213,269,42,59,316,85,230,499
200,241,41,59,319,84,193,475
170,173,40,55,319,83,183,487
193,197,41,67,399,90,202,513
176,189,40,71,409,84,187,448
168,152,33,62,358,69,150,387
167,155,33,60,346,65,153,396
234,208,36,65,364,69,225,359
218,200,38,60,247,59,204,281
223,213,40,54,207,57,207,339
268,260,42,54,204,57,216,363
295,286,43,54,199,56,222,394
251,250,40,64,220,58,161,430
251,247,38,57,192,48,153,448
253,248,37,59,199,51,161,424
243,222,44,62,247,53,177,425
259,219,45,68,281,58,179,435
268,245,45,56,248,60,179,424
270,237,45,55,240,61,191,403
280,252,45,66,344,61,190,412
259,266,45,68,339,63,181,433
219,259,44,66,324,71,216,414
224,253,43,69,353,66,209,415
243,267,44,70,359,66,223,431
227,258,46,56,252,66,222,433
231,246,41,55,221,65,213,423
259,219,45,68,281,58,179,435
268,245,45,56,248,60,179,424
270,237,45,55,240,61,191,403
280,252,45,66,344,61,190,412
259,266,45,68,339,63,181,433
219,259,44,66,324,71,216,414
224,253,43,69,353,66,209,415
243,267,44,70,359,66,223,431
227,258,46,56,252,66,222,433
231,246,41,55,221,65,213,423
235,234,43,53,214,58,198,442
242,265,46,50,153,61,213,421
239,303,47,59,260,73,209,424
229,294,42,61,291,75,202,399
225,325,56,62,288,75,224,424
237,334,56,66,307,83,205,375
208,314,54,70,303,84,185,352
184,281,56,60,207,75,186,396
180,277,55,59,167,69,184,384
226,287,64,65,179,78,242,429
208,279,63,60,238,81,250,457
208,267,63,59,263,88,256,448
197,243,60,57,258,82,235,393
224,278,64,59,262,84,240,464
217,224,39,48,270,77,160,373
207,204,39,47,180,59,133,319
223,206,39,39,135,44,147,357
225,213,36,40,133,44,153,366
221,224,35,37,128,42,164,303
185,212,39,37,112,39,159,359
208,279,63,60,238,81,250,457
208,267,63,59,263,88,256,448
197,243,60,57,258,82,235,393
224,278,64,59,262,84,240,464
217,224,39,48,270,77,160,373
207,204,39,47,180,59,133,319
223,206,39,39,135,44,147,357
225,213,36,40,133,44,153,366
221,224,35,37,128,42,164,303
185,212,39,37,112,39,159,359
202,224,38,52,321,66,172,378
197,225,37,56,351,70,159,351
191,233,37,56,357,74,174,414
188,210,36,54,354,74,170,421
184,269,38,55,360,77,205,464
169,278,40,41,201,56,201,472
170,281,43,36,147,49,214,478
205,295,45,40,134,44,201,476
211,300,43,40,150,44,188,475
201,263,38,40,129,40,164,414
226,246,35,38,131,42,170,412
240,269,32,36,132,47,151,402
230,273,35,31,131,49,164,368
221,274,39,30,111,48,172,363
245,286,42,37,108,48,148,393
239,318,46,40,107,48,163,396
229,295,46,41,120,44,161,399
217,275,44,44,124,41,148,378
218,291,45,44,125,40,144,379
196,281,46,44,137,53,150,316
226,246,35,38,131,42,170,412
240,269,32,36,132,47,151,402
230,273,35,31,131,49,164,368
221,274,39,30,111,48,172,363
245,286,42,37,108,48,148,393
239,318,46,40,107,48,163,396
229,295,46,41,120,44,161,399
217,275,44,44,124,41,148,378
218,291,45,44,125,40,144,379
196,281,46,44,137,53,150,316
219,250,43,43,146,53,135,318
215,279,44,46,148,57,136,361
218,297,44,45,149,61,141,362
228,287,43,47,158,63,150,427
228,281,42,47,142,54,164,497
217,287,42,44,127,54,158,515
237,264,45,42,119,52,167,514
231,246,44,44,117,52,164,528
221,297,50,45,142,59,157,489
270,297,49,40,148,58,161,426
245,311,51,42,151,59,151,380
228,322,50,41,148,56,155,401
233,330,49,38,140,56,157,371
222,292,40,35,99,49,171,390
175,298,40,37,89,48,183,385
233,278,39,36,86,49,201,403
223,253,34,35,79,49,196,387
236,249,36,37,110,47,212,393
239,196,33,36,117,47,211,339
241,184,34,39,161,57,208,358
245,311,51,42,151,59,151,380
228,322,50,41,148,56,155,401
233,330,49,38,140,56,157,371
222,292,40,35,99,49,171,390
175,298,40,37,89,48,183,385
233,278,39,36,86,49,201,403
223,253,34,35,79,49,196,387
236,249,36,37,110,47,212,393
239,196,33,36,117,47,211,339
241,184,34,39,161,57,208,358
198,208,36,45,191,56,203,362
218,235,36,55,239,70,237,449
217,238,44,61,231,73,233,464
214,235,45,61,227,72,221,461
199,221,44,59,213,66,206,491
216,228,43,56,193,67,210,494
196,198,43,49,193,65,161,373
171,169,46,119,354,91,143,334
176,182,56,214,454,126,144,326
177,189,64,239,695,209,132,231
147,144,68,270,794,235,106,149
131,142,77,296,827,248,97,120
131,154,81,354,962,251,82,97
123,146,97,398,1066,261,73,91
125,157,104,426,1057,254,84,121
113,159,125,492,1104,297,93,116
124,163,123,483,1154,302,96,118
135,169,120,439,1060,293,94,130
130,166,104,387,959,279,92,138
119,152,93,368,934,246,76,133
55,139,30,55,393,67,44,104
50,131,30,59,433,66,48,121
67,134,34,51,403,64,44,104
83,136,36,46,337,55,41,107
82,149,38,48,359,53,41,125
85,138,35,52,396,51,41,123
86,141,35,52,436,55,40,109
90,150,34,58,417,60,40,165
101,150,38,60,419,63,50,212
249,173,43,60,374,63,109,324
404,273,78,71,321,63,135,440
466,329,83,72,183,57,154,570
491,334,87,68,131,57,168,686
499,347,87,68,108,60,186,795
489,366,87,66,84,63,177,1000
391,333,59,52,69,63,176,1049
350,342,66,52,70,63,237,1038
340,434,74,55,68,66,242,1078
354,526,93,64,75,70,280,1104
352,542,101,67,78,78,329,1047
352,597,114,71,84,91,419,1080
354,590,112,75,95,111,420,1079
391,557,107,71,92,113,467,1015
393,488,103,70,121,125,561,1025
363,476,97,100,383,157,562,901
374,405,84,101,411,154,530,899
359,384,80,101,409,147,547,936
371,344,77,105,419,144,514,973
382,361,77,115,427,146,453,902
401,380,85,94,247,116,456,921
352,597,114,71,84,91,419,1080
354,590,112,75,95,111,420,1079
391,557,107,71,92,113,467,1015
393,488,103,70,121,125,561,1025
363,476,97,100,383,157,562,901
374,405,84,101,411,154,530,899
359,384,80,101,409,147,547,936
371,344,77,105,419,144,514,973
382,361,77,115,427,146,453,902
401,380,85,94,247,116,456,921
413,384,87,97,201,125,471,884
429,400,99,104,201,126,447,860
394,413,108,104,184,127,477,823
426,386,102,91,141,117,430,858
417,398,100,88,98,107,415,842
414,384,103,89,218,110,405,883
390,412,92,75,251,103,387,849
382,421,86,71,294,105,346,829
317,416,83,68,305,108,366,819
304,422,75,65,311,107,357,833
267,415,66,52,248,95,320,774
270,369,65,52,225,99,345,801
286,353,60,53,169,99,370,819
273,344,57,51,177,93,345,745
278,258,57,52,192,96,327,780
298,352,70,60,192,95,323,734
313,398,75,62,186,93,297,720
272,390,72,57,181,86,264,693
273,394,71,62,171,82,251,686
260,405,70,62,159,88,272,631
267,415,66,52,248,95,320,774
270,369,65,52,225,99,345,801
286,353,60,53,169,99,370,819
273,344,57,51,177,93,345,745
278,258,57,52,192,96,327,780
298,352,70,60,192,95,323,734
313,398,75,62,186,93,297,720
272,390,72,57,181,86,264,693
273,394,71,62,171,82,251,686
260,405,70,62,159,88,272,631
230,326,55,54,144,84,255,591
268,283,53,53,134,86,258,557
273,269,52,54,140,105,244,503
280,261,60,58,126,114,281,528
279,236,56,58,122,117,255,458
284,239,57,68,174,124,249,476
238,204,60,79,308,128,258,479
230,190,59,81,322,114,259,471
232,248,50,74,322,106,197,463
220,317,55,78,339,114,213,495
203,301,50,69,321,106,203,452
182,302,39,53,208,93,163,455
229,372,54,55,194,99,212,533
215,338,55,56,194,99,219,511
201,271,51,47,149,72,190,469
269,279,64,79,241,91,251,569
270,272,65,114,438,140,253,535
277,219,59,120,460,141,235,532
306,251,63,120,459,141,246,542
314,256,63,121,463,143,255,554
203,301,50,69,321,106,203,452
182,302,39,53,208,93,163,455
229,372,54,55,194,99,212,533
215,338,55,56,194,99,219,511
201,271,51,47,149,72,190,469
269,279,64,79,241,91,251,569
270,272,65,114,438,140,253,535
277,219,59,120,460,141,235,532
306,251,63,120,459,141,246,542
314,256,63,121,463,143,255,554
271,294,59,110,425,133,218,507
272,300,59,77,274,84,224,508
237,334,55,70,270,79,219,487
206,336,57,79,320,104,207,535
208,333,62,84,335,128,221,551
190,307,57,75,377,131,208,501
183,333,58,71,336,137,231,565
165,273,55,64,306,136,222,561
173,244,50,53,255,116,230,506
183,263,48,47,237,94,239,613
210,272,51,53,149,84,242,645
211,305,55,60,204,83,220,589
246,326,57,67,249,88,225,587
241,328,59,70,269,88,222,645
235,317,55,67,277,91,205,564
262,351,53,64,281,91,209,579
265,301,45,57,257,84,197,597
244,304,44,50,215,78,202,619
242,300,42,48,188,80,191,607
241,295,42,52,201,75,228,596
210,272,51,53,149,84,242,645
211,305,55,60,204,83,220,589
246,326,57,67,249,88,225,587
241,328,59,70,269,88,222,645
235,317,55,67,277,91,205,564
262,351,53,64,281,91,209,579
265,301,45,57,257,84,197,597
244,304,44,50,215,78,202,619
242,300,42,48,188,80,191,607
241,295,42,52,201,75,228,596
214,245,46,52,223,73,236,551
241,289,51,54,216,71,271,593
233,255,49,55,216,66,265,548
222,285,47,52,260,61,260,460
223,310,48,51,311,66,242,517
209,300,41,56,321,68,219,520
175,263,43,69,368,82,243,451
187,276,43,72,423,102,247,444
187,239,43,75,408,108,251,450
215,224,51,75,375,123,269,525
223,233,58,94,431,144,324,554
234,210,52,87,392,136,276,541
247,193,54,84,331,123,263,567
253,192,58,97,464,139,301,607
240,204,53,96,484,122,271,466
232,208,46,77,417,96,237,493
222,206,46,76,454,107,237,511
217,245,46,80,510,110,272,578
220,264,42,60,418,83,246,562
217,239,36,58,390,84,248,557
223,233,58,94,431,144,324,554
234,210,52,87,392,136,276,541
247,193,54,84,331,123,263,567
253,192,58,97,464,139,301,607
240,204,53,96,484,122,271,466
232,208,46,77,417,96,237,493
222,206,46,76,454,107,237,511
217,245,46,80,510,110,272,578
220,264,42,60,418,83,246,562
217,239,36,58,390,84,248,557
230,262,40,58,468,87,248,545
253,293,42,59,458,73,249,531
265,275,45,55,399,69,245,464
273,305,47,58,415,78,238,459
264,308,47,59,426,72,252,495
258,281,45,71,411,73,244,485
235,254,42,74,394,80,240,496
218,278,41,75,402,83,235,566
195,233,38,75,401,79,237,572
227,279,49,79,393,81,265,629
238,319,50,78,413,83,282,617
229,318,51,79,434,79,291,601
238,303,51,79,460,83,302,530
238,305,52,79,439,90,294,539
200,252,45,76,436,89,246,439
190,214,44,66,364,83,258,479
192,218,42,67,388,82,247,490
151,180,45,93,468,101,224,524
251,230,44,96,463,97,253,516
270,242,41,99,514,102,251,507
238,319,50,78,413,83,282,617
229,318,51,79,434,79,291,601
238,303,51,79,460,83,302,530
238,305,52,79,439,90,294,539
200,252,45,76,436,89,246,439
190,214,44,66,364,83,258,479
192,218,42,67,388,82,247,490
151,180,45,93,468,101,224,524
251,230,44,96,463,97,253,516
270,242,41,99,514,102,251,507
268,254,41,101,520,103,240,505
274,265,48,95,475,103,239,558
301,315,51,73,385,79,247,580
241,292,53,70,420,75,239,573
224,297,57,69,419,71,253,634
221,290,58,67,416,70,220,617
219,277,57,65,422,68,231,594
220,261,51,63,394,65,214,560
209,240,48,62,401,72,192,559
205,267,46,71,408,82,181,548
197,311,46,75,473,90,165,526
207,321,45,76,472,90,181,555
192,303,45,77,478,90,171,521
242,335,45,77,429,81,177,526
270,335,44,81,520,102,194,516
265,277,37,81,462,95,194,482
274,283,56,86,455,94,181,446
285,317,68,111,569,134,221,490
242,285,72,119,602,146,213,462
235,312,75,107,459,124,204,437
197,311,46,75,473,90,165,526
207,321,45,76,472,90,181,555
192,303,45,77,478,90,171,521
242,335,45,77,429,81,177,526
270,335,44,81,520,102,194,516
265,277,37,81,462,95,194,482
274,283,56,86,455,94,181,446
285,317,68,111,569,134,221,490
242,285,72,119,602,146,213,462
235,312,75,107,459,124,204,437
234,312,77,103,443,121,221,456
216,291,68,108,457,130,213,408
258,270,66,110,451,138,242,390
269,287,61,113,489,144,245,411
243,216,56,113,487,144,237,371
261,244,55,125,506,155,254,524
251,247,49,133,572,173,259,530
163,211,37,113,476,139,188,476
186,262,51,101,406,127,201,571
196,273,54,104,425,134,198,574
179,251,58,93,403,130,179,487
193,253,57,70,301,99,184,495
246,300,60,77,428,101,225,514
225,238,50,87,531,112,213,414
221,225,48,87,552,110,215,408
233,280,47,82,549,101,198,347
237,298,54,83,562,98,203,361
187,266,49,72,456,92,153,323
167,256,47,53,303,66,137,263
189,258,49,46,224,54,153,335
179,251,58,93,403,130,179,487
193,253,57,70,301,99,184,495
246,300,60,77,428,101,225,514
225,238,50,87,531,112,213,414
221,225,48,87,552,110,215,408
233,280,47,82,549,101,198,347
237,298,54,83,562,98,203,361
187,266,49,72,456,92,153,323
167,256,47,53,303,66,137,263
189,258,49,46,224,54,153,335
190,197,45,44,217,52,165,340
197,230,40,37,139,46,149,375
241,225,40,42,238,48,150,391
268,259,45,45,292,68,190,467
266,269,41,52,359,73,199,425
255,275,40,55,378,77,187,423
238,219,39,60,414,77,186,467
228,228,45,59,406,77,209,462
210,226,40,58,399,65,200,489
219,208,41,52,341,63,199,500
216,214,43,52,321,59,208,515
224,242,47,48,322,58,209,451
213,230,44,48,295,55,241,502
205,210,45,48,300,49,246,420
186,209,49,61,336,55,247,435
263,226,52,76,401,84,374,493
259,201,49,84,382,86,370,484
237,191,46,82,356,86,342,422
274,184,49,84,322,92,381,426
268,188,45,84,332,93,382,422
216,214,43,52,321,59,208,515
224,242,47,48,322,58,209,451
213,230,44,48,295,55,241,502
205,210,45,48,300,49,246,420
186,209,49,61,336,55,247,435
263,226,52,76,401,84,374,493
259,201,49,84,382,86,370,484
237,191,46,82,356,86,342,422
274,184,49,84,322,92,381,426
268,188,45,84,332,93,382,422
187,140,40,76,267,77,260,324
196,137,37,65,238,76,269,335
223,193,40,67,245,75,293,353
198,183,36,67,355,82,218,402
228,242,42,58,369,83,234,437
247,252,40,46,378,77,229,461
247,265,42,48,399,82,223,447
230,235,40,47,403,82,184,465
225,237,40,43,323,72,188,441
206,182,32,44,263,63,153,446
219,177,33,52,262,64,168,425
212,171,31,53,269,62,183,419
243,185,34,54,259,68,211,458
239,197,33,55,246,75,201,445
235,184,34,52,242,72,191,374
218,275,44,61,306,87,214,541
220,276,45,69,338,97,200,556
176,261,42,70,340,90,176,495
156,251,41,67,332,80,174,477
175,279,44,70,343,83,201,519
219,177,33,52,262,64,168,425
212,171,31,53,269,62,183,419
243,185,34,54,259,68,211,458
239,197,33,55,246,75,201,445
235,184,34,52,242,72,191,374
218,275,44,61,306,87,214,541
220,276,45,69,338,97,200,556
176,261,42,70,340,90,176,495
156,251,41,67,332,80,174,477
175,279,44,70,343,83,201,519
152,191,36,64,330,67,167,337
173,214,38,55,298,53,167,331
185,252,41,56,302,60,171,370
233,259,43,57,301,60,180,381
249,280,48,64,357,66,182,431
255,275,46,71,404,79,173,462
237,254,47,73,413,78,173,484
231,218,44,71,422,72,165,487
241,253,48,73,449,79,196,508
215,247,42,64,411,74,169,421
229,253,47,50,313,55,184,412
238,258,50,65,367,75,207,459
242,269,50,71,397,88,209,438
186,226,45,68,371,82,174,407
198,191,45,73,378,91,230,444
170,181,43,80,399,98,215,430
165,183,37,65,318,84,189,366
204,204,41,59,263,78,294,405
204,206,42,62,267,78,296,405
211,226,45,57,229,69,278,451
229,253,47,50,313,55,184,412
238,258,50,65,367,75,207,459
242,269,50,71,397,88,209,438
186,226,45,68,371,82,174,407
198,191,45,73,378,91,230,444
170,181,43,80,399,98,215,430
165,183,37,65,318,84,189,366
204,204,41,59,263,78,294,405
204,206,42,62,267,78,296,405
211,226,45,57,229,69,278,451
235,253,44,44,160,59,282,458
241,249,46,59,186,71,285,489
205,220,42,68,295,73,191,481
232,255,47,72,333,76,207,488
230,229,41,70,396,82,190,472
230,209,40,70,416,82,193,460
233,202,40,58,398,71,187,420
235,200,40,52,350,65,209,474
217,169,38,59,315,65,209,512
192,165,36,66,239,56,200,494
205,200,36,66,207,60,203,511
195,199,35,64,204,58,204,510
195,206,37,60,170,55,167,499
203,230,35,54,298,68,153,484
220,235,39,54,319,71,176,497
192,210,38,59,346,71,182,495
187,198,35,64,355,72,181,510
223,270,41,66,389,78,204,495
206,243,41,68,329,67,199,465
202,240,38,63,303,63,178,476
205,200,36,66,207,60,203,511
195,199,35,64,204,58,204,510
195,206,37,60,170,55,167,499
203,230,35,54,298,68,153,484
220,235,39,54,319,71,176,497
192,210,38,59,346,71,182,495
187,198,35,64,355,72,181,510
223,270,41,66,389,78,204,495
206,243,41,68,329,67,199,465
202,240,38,63,303,63,178,476
193,237,41,58,274,62,164,471
189,237,41,52,269,61,156,425
196,236,45,56,247,66,184,477
205,235,44,71,323,95,210,478
182,226,44,77,350,100,207,404
205,216,49,82,345,104,245,413
249,229,51,83,345,105,251,454
225,145,43,81,314,97,215,359
232,196,41,61,203,67,214,417
247,220,43,51,155,61,222,433
236,231,36,42,150,48,185,455
202,221,33,40,149,50,182,434
183,209,32,34,140,51,171,411
170,153,35,41,148,59,157,360
164,114,33,41,152,57,144,444
177,91,31,40,162,63,145,397
186,98,35,41,155,65,161,416
187,103,35,40,155,61,158,419
186,102,37,43,154,65,135,406
188,110,42,61,206,98,133,288
39,86,27,64,413,74,46,192
37,86,27,59,410,80,48,187
48,93,26,52,418,90,50,174
46,113,27,50,503,89,53,187
63,128,30,50,491,88,55,210
147,155,33,49,476,89,63,329
403,200,45,50,433,87,93,453
588,362,78,62,364,69,122,615
651,474,84,67,173,77,182,696
743,488,90,72,162,77,220,721
760,508,93,74,149,102,248,836
741,527,93,80,197,114,293,866
623,445,73,72,239,115,315,863
566,350,71,68,231,111,356,962
483,336,69,64,228,114,377,1089
458,331,73,62,221,98,431,1030
385,321,73,57,168,93,427,1060
416,318,78,68,79,94,420,1085
437,394,77,67,76,95,420,1022
481,429,83,70,105,94,417,960
515,479,86,71,193,98,414,979
512,508,102,83,379,115,447,949
565,558,110,99,417,132,472,893
665,556,131,108,461,140,505,852
617,563,131,109,473,144,528,802
587,537,131,111,467,141,488,796
612,583,136,110,364,125,449,799
559,550,127,91,364,110,431,791
415,544,106,82,315,100,350,807
395,526,103,82,296,95,313,803
515,479,86,71,193,98,414,979
512,508,102,83,379,115,447,949
565,558,110,99,417,132,472,893
665,556,131,108,461,140,505,852
617,563,131,109,473,144,528,802
587,537,131,111,467,141,488,796
612,583,136,110,364,125,449,799
559,550,127,91,364,110,431,791
415,544,106,82,315,100,350,807
395,526,103,82,296,95,313,803
397,516,108,86,296,93,357,777
341,423,87,81,271,88,341,735
323,479,92,80,223,86,362,731
387,508,96,80,237,89,404,739
426,564,96,82,282,100,478,765
424,556,88,81,281,112,505,762
397,552,85,75,293,114,523,755
369,521,81,72,287,108,510,725
323,442,74,68,269,99,479,689
289,350,69,58,209,88,395,639
265,345,65,46,172,72,314,624
251,337,65,47,143,77,282,641
273,290,64,50,139,92,275,638
236,262,63,53,138,93,268,595
224,275,62,57,184,98,273,641
282,303,62,55,178,98,257,597
322,332,60,56,179,88,273,683
308,368,59,51,182,79,248,683
344,378,61,53,182,83,254,732
362,403,63,49,144,74,251,766
265,345,65,46,172,72,314,624
251,337,65,47,143,77,282,641
273,290,64,50,139,92,275,638
236,262,63,53,138,93,268,595
224,275,62,57,184,98,273,641
282,303,62,55,178,98,257,597
322,332,60,56,179,88,273,683
308,368,59,51,182,79,248,683
344,378,61,53,182,83,254,732
362,403,63,49,144,74,251,766
344,374,59,51,209,76,272,763
317,334,58,51,220,76,271,689
321,312,54,55,235,78,288,675
285,310,52,63,312,83,267,647
256,273,46,66,313,85,245,552
238,319,47,68,279,83,220,564
223,360,46,65,265,79,188,501
237,328,43,60,252,74,184,490
255,332,46,49,159,67,197,461
244,321,46,51,197,65,197,503
248,266,47,53,300,74,217,506
251,263,48,59,333,81,227,505
215,280,53,60,333,80,240,518
183,304,51,59,328,73,232,506
217,304,50,57,306,72,226,443
187,300,46,49,188,58,207,412
224,276,43,53,202,73,249,489
229,257,36,58,209,72,211,472
230,211,33,60,209,73,223,471
291,258,47,77,315,97,286,468
248,266,47,53,300,74,217,506
251,263,48,59,333,81,227,505
215,280,53,60,333,80,240,518
183,304,51,59,328,73,232,506
217,304,50,57,306,72,226,443
187,300,46,49,188,58,207,412
224,276,43,53,202,73,249,489
229,257,36,58,209,72,211,472
230,211,33,60,209,73,223,471
291,258,47,77,315,97,286,468
297,260,51,81,333,104,289,460
267,231,52,77,298,94,253,324
263,220,52,73,291,92,253,330
284,263,58,72,290,93,237,349
187,199,43,46,162,63,143,283
185,196,39,39,115,49,124,274
226,243,44,38,91,44,163,387
244,251,45,36,78,46,169,422
234,254,54,42,88,52,188,418
267,260,56,51,212,82,209,483
286,279,59,58,354,94,258,522
271,289,60,61,365,101,236,546
259,300,60,65,396,103,262,556
256,295,49,60,409,100,257,577
245,321,49,56,378,82,241,534
237,320,49,70,357,83,225,537
250,317,42,73,408,78,228,517
280,336,41,75,443,78,244,572
304,315,44,81,447,90,259,556
307,287,43,81,441,88,263,564
286,279,59,58,354,94,258,522
271,289,60,61,365,101,236,546
259,300,60,65,396,103,262,556
256,295,49,60,409,100,257,577
245,321,49,56,378,82,241,534
237,320,49,70,357,83,225,537
250,317,42,73,408,78,228,517
280,336,41,75,443,78,244,572
304,315,44,81,447,90,259,556
307,287,43,81,441,88,263,564
305,281,47,67,379,81,250,571
278,236,47,60,339,84,255,537
250,202,46,66,322,98,224,457
212,185,40,62,307,90,202,426
210,299,46,74,376,100,244,483
211,291,41,89,447,111,228,432
206,290,40,92,437,110,210,394
207,334,61,97,421,119,256,442
200,331,64,97,430,118,256,457
172,225,60,88,368,110,215,426
163,244,60,70,261,96,232,498
188,295,62,69,352,98,266,562
174,230,44,50,322,68,205,493
181,293,48,54,309,66,222,574
201,323,50,62,375,73,239,592
200,314,49,64,394,75,223,537
242,282,53,83,424,93,270,536
247,295,50,93,444,100,271,537
247,230,43,88,440,97,263,427
278,309,59,88,400,101,337,443
163,244,60,70,261,96,232,498
188,295,62,69,352,98,266,562
174,230,44,50,322,68,205,493
181,293,48,54,309,66,222,574
201,323,50,62,375,73,239,592
200,314,49,64,394,75,223,537
242,282,53,83,424,93,270,536
247,295,50,93,444,100,271,537
247,230,43,88,440,97,263,427
278,309,59,88,400,101,337,443
268,313,59,90,423,112,349,488
208,304,54,75,319,99,287,410
218,299,60,63,278,92,289,451
217,304,60,63,302,94,289,505
142,180,40,52,281,87,167,419
155,170,46,69,409,91,161,429
170,173,45,71,449,89,167,448
204,202,43,74,455,88,190,418
217,227,47,83,476,95,175,417
225,235,47,87,492,94,173,422
258,243,51,78,365,74,177,441
266,246,50,76,348,73,178,436
230,237,51,81,404,78,161,496
223,222,50,77,362,69,194,468
220,236,51,73,386,64,200,491
189,243,46,72,405,69,195,459
160,246,46,72,378,65,201,446
164,230,41,64,328,67,196,366
154,272,42,59,362,70,197,471
147,248,40,58,311,70,193,451
258,243,51,78,365,74,177,441
266,246,50,76,348,73,178,436
230,237,51,81,404,78,161,496
223,222,50,77,362,69,194,468
220,236,51,73,386,64,200,491
189,243,46,72,405,69,195,459
160,246,46,72,378,65,201,446
164,230,41,64,328,67,196,366
154,272,42,59,362,70,197,471
147,248,40,58,311,70,193,451
113,227,33,48,251,62,172,404
120,206,36,61,264,78,175,462
157,250,43,76,369,100,171,465
160,188,43,81,354,106,129,326
174,189,45,81,352,105,129,344
189,244,53,87,366,107,157,386
203,258,53,81,356,103,164,459
172,215,50,67,229,76,162,482
187,211,48,59,204,64,170,494
191,219,48,65,263,65,175,517
201,180,45,62,287,64,183,519
198,210,44,53,304,63,168,450
213,217,41,54,316,63,186,433
227,255,42,54,311,68,184,447
250,258,45,55,280,74,190,416
251,247,42,56,257,76,193,427
245,210,42,68,262,70,192,370
230,216,42,75,386,73,175,384
195,184,43,80,403,70,168,356
178,219,49,79,395,72,200,400
201,180,45,62,287,64,183,519
198,210,44,53,304,63,168,450
213,217,41,54,316,63,186,433
227,255,42,54,311,68,184,447
250,258,45,55,280,74,190,416
251,247,42,56,257,76,193,427
245,210,42,68,262,70,192,370
230,216,42,75,386,73,175,384
195,184,43,80,403,70,168,356
178,219,49,79,395,72,200,400
163,211,47,76,390,68,176,368
156,212,48,65,363,70,172,359
151,259,57,69,286,79,208,410
148,249,55,67,269,84,208,412
123,214,46,63,264,74,178,365
138,258,58,74,380,90,213,486
154,265,58,77,401,89,210,501
186,214,51,64,348,76,186,470
225,228,53,60,342,71,200,469
235,254,55,61,342,70,198,488
233,267,50,58,239,54,165,476
233,260,50,54,260,50,168,464
208,249,48,55,271,53,175,460
208,286,47,72,370,84,198,500
207,265,46,76,417,93,194,473
195,205,38,67,397,89,186,336
188,204,37,65,356,88,195,413
215,327,43,71,352,91,194,387
181,294,42,58,292,66,154,337
188,307,43,51,218,55,174,380
233,267,50,58,239,54,165,476
233,260,50,54,260,50,168,464
208,249,48,55,271,53,175,460
208,286,47,72,370,84,198,500
207,265,46,76,417,93,194,473
195,205,38,67,397,89,186,336
188,204,37,65,356,88,195,413
215,327,43,71,352,91,194,387
181,294,42,58,292,66,154,337
188,307,43,51,218,55,174,380
216,330,42,52,219,57,181,404
277,349,46,54,307,59,188,414
273,258,41,51,343,53,184,448
288,318,46,48,302,51,197,453
289,317,48,49,303,52,185,473
296,306,50,54,385,69,194,475
245,289,47,53,341,71,191,452
239,277,46,49,311,72,190,497
232,203,41,45,324,70,183,499
219,253,41,50,373,72,188,494
206,248,41,45,309,57,176,483
208,251,40,45,311,52,168,501
223,298,42,42,316,48,147,425
228,304,43,44,305,51,162,427
227,274,38,41,310,46,159,406
214,269,38,37,291,45,170,436
219,261,40,39,276,47,195,377
189,200,39,40,272,50,206,369
232,208,40,42,275,52,200,382
236,193,40,39,234,56,200,345
206,248,41,45,309,57,176,483
208,251,40,45,311,52,168,501
223,298,42,42,316,48,147,425
228,304,43,44,305,51,162,427
227,274,38,41,310,46,159,406
214,269,38,37,291,45,170,436
219,261,40,39,276,47,195,377
189,200,39,40,272,50,206,369
232,208,40,42,275,52,200,382
236,193,40,39,234,56,200,345
230,196,41,39,229,59,210,353
237,220,40,45,277,71,204,343
236,219,37,48,277,69,191,329
201,224,41,49,287,71,255,357
189,205,40,52,293,69,250,355
179,196,39,58,293,67,232,284
221,206,43,59,266,59,247,314
221,203,47,74,345,79,252,316
192,164,43,75,346,76,172,235
244,238,58,77,318,78,190,287
254,239,58,78,380,90,204,345
199,207,56,73,361,89,158,311
227,212,55,56,275,72,163,330
236,227,57,52,256,70,217,392
184,142,42,46,257,68,198,358
201,176,42,42,258,65,185,366
200,181,39,42,283,63,210,365
187,194,43,41,301,65,217,362
192,187,39,41,301,68,184,354
194,200,42,46,314,71,190,352
254,239,58,78,380,90,204,345
199,207,56,73,361,89,158,311
227,212,55,56,275,72,163,330
236,227,57,52,256,70,217,392
184,142,42,46,257,68,198,358
201,176,42,42,258,65,185,366
200,181,39,42,283,63,210,365
187,194,43,41,301,65,217,362
192,187,39,41,301,68,184,354
194,200,42,46,314,71,190,352
183,168,42,46,283,60,215,382
199,189,43,44,262,57,203,409
199,188,43,46,243,54,203,418
201,201,43,48,242,58,213,416
218,205,42,48,235,58,216,443
220,217,42,51,185,67,200,410
204,191,41,55,165,66,190,376
219,227,48,59,251,73,203,421
212,215,49,65,269,72,184,386
186,204,50,65,265,70,174,351
202,226,50,63,265,67,249,342
206,239,51,69,310,78,250,347
190,224,43,66,261,81,254,413
189,235,41,58,245,76,247,453
212,252,41,53,248,78,262,491
179,236,42,63,355,83,229,486
185,230,42,65,348,81,234,496
208,224,43,64,373,84,208,425
207,225,43,65,394,86,210,379
210,212,42,73,425,94,196,350
202,226,50,63,265,67,249,342
206,239,51,69,310,78,250,347
190,224,43,66,261,81,254,413
189,235,41,58,245,76,247,453
212,252,41,53,248,78,262,491
179,236,42,63,355,83,229,486
185,230,42,65,348,81,234,496
208,224,43,64,373,84,208,425
207,225,43,65,394,86,210,379
210,212,42,73,425,94,196,350
226,206,38,66,344,90,147,362
225,215,39,61,403,84,153,347
194,214,38,61,386,75,158,328
218,216,40,60,363,75,159,382
238,210,40,53,317,61,166,475
228,241,42,52,326,52,177,476
233,233,39,50,254,62,182,531
244,206,39,51,250,65,195,530
235,188,37,57,305,68,212,531
222,229,42,58,370,73,208,477
235,187,44,61,368,74,197,515
226,191,44,56,350,73,219,511
231,234,48,64,352,82,202,505
242,239,47,61,335,80,182,509
234,208,45,62,290,82,192,526
224,220,43,55,275,83,192,517
237,245,52,58,265,80,175,481
226,240,52,51,277,69,190,491
237,251,51,48,286,66,203,492
233,243,50,49,298,73,218,452
235,187,44,61,368,74,197,515
226,191,44,56,350,73,219,511
231,234,48,64,352,82,202,505
242,239,47,61,335,80,182,509
234,208,45,62,290,82,192,526
224,220,43,55,275,83,192,517
237,245,52,58,265,80,175,481
226,240,52,51,277,69,190,491
237,251,51,48,286,66,203,492
233,243,50,49,298,73,218,452
233,240,52,50,302,70,218,459
227,220,46,65,304,75,232,457
252,179,41,111,267,72,219,423
218,145,42,128,257,75,224,477
210,137,42,135,294,73,202,480
207,119,49,201,551,133,197,407
196,106,80,320,802,225,153,387
146,112,98,357,895,352,157,383
145,115,115,396,1015,399,141,217
138,132,124,401,1039,431,137,147
124,134,120,403,1088,442,132,118
114,117,110,477,1114,464,128,106
112,115,111,472,1212,399,123,96
109,125,99,472,1200,373,107,103
94,120,102,531,1303,356,94,96
108,137,106,524,1216,336,96,112
116,163,103,407,1125,306,86,145
120,161,84,378,994,287,81,156
117,151,79,342,912,265,82,158
120,158,61,241,759,242,81,161
99,124,40,68,589,99,59,186
98,119,40,69,591,101,56,155
98,121,40,73,609,96,56,169
104,136,40,69,554,95,59,197
89,136,41,66,529,82,64,229
102,158,39,56,411,69,97,318
263,236,51,67,354,82,165,395
373,447,72,73,251,86,193,568
598,570,83,73,211,82,239,760
669,617,89,73,188,84,272,894
686,644,95,85,151,87,293,1050
676,637,94,78,137,75,308,1154
652,528,84,72,110,80,443,1181
570,415,88,81,103,99,610,1161
530,400,104,88,99,121,663,1151
564,365,118,104,255,139,694,1047
624,367,125,131,394,166,757,1030
676,481,143,137,435,173,728,981
616,522,142,146,503,190,597,973
599,497,134,150,553,190,550,904
563,523,117,143,538,196,537,896
470,510,112,125,500,178,446,808
369,442,90,122,502,185,405,850
350,456,83,108,448,160,446,827
364,570,76,100,419,154,450,879
357,550,78,88,436,132,435,858
368,577,70,80,422,130,430,822
356,562,72,84,432,124,476,803
342,545,75,78,445,128,428,740
330,471,81,80,442,125,409,661
563,523,117,143,538,196,537,896
470,510,112,125,500,178,446,808
369,442,90,122,502,185,405,850
350,456,83,108,448,160,446,827
364,570,76,100,419,154,450,879
357,550,78,88,436,132,435,858
368,577,70,80,422,130,430,822
356,562,72,84,432,124,476,803
342,545,75,78,445,128,428,740
330,471,81,80,442,125,409,661
331,470,84,76,400,121,393,728
308,438,81,77,422,124,385,721
315,418,80,74,415,112,288,655
295,366,79,83,423,115,282,667
296,355,72,88,433,113,335,682
296,338,75,103,491,134,334,587
291,342,77,100,510,134,315,584
280,339,72,94,488,132,339,543
319,335,75,96,539,132,354,544
296,292,75,91,561,128,299,521
302,312,68,81,514,120,298,594
302,336,70,85,462,129,304,671
306,332,69,89,464,131,291,705
276,327,62,84,433,128,285,675
257,292,63,78,383,129,272,665
231,304,62,82,358,115,257,590
245,303,61,86,352,96,256,482
240,296,60,89,355,99,250,410
256,284,56,88,330,96,231,459
253,288,57,92,316,94,224,448
302,312,68,81,514,120,298,594
302,336,70,85,462,129,304,671
306,332,69,89,464,131,291,705
276,327,62,84,433,128,285,675
257,292,63,78,383,129,272,665
231,304,62,82,358,115,257,590
245,303,61,86,352,96,256,482
240,296,60,89,355,99,250,410
256,284,56,88,330,96,231,459
253,288,57,92,316,94,224,448
237,250,56,90,333,98,231,475
266,249,52,95,350,107,231,526
252,249,50,90,344,100,223,530
244,258,53,86,302,96,218,496
279,295,54,86,342,95,229,511
293,311,55,80,337,92,224,541
250,336,62,79,380,80,221,567
268,377,65,81,383,85,208,605
261,379,62,84,390,87,204,578
237,358,58,97,441,102,207,603
225,353,63,123,489,126,227,557
223,312,59,128,449,125,228,507
226,299,57,128,434,128,251,498
246,357,60,128,459,123,259,602
260,361,65,121,393,111,268,566
266,382,61,92,342,84,239,556
290,403,59,69,342,94,249,548
299,391,60,70,371,84,246,539
279,368,62,71,400,92,255,481
268,365,59,69,406,104,243,487
225,353,63,123,489,126,227,557
223,312,59,128,449,125,228,507
226,299,57,128,434,128,251,498
246,357,60,128,459,123,259,602
260,361,65,121,393,111,268,566
266,382,61,92,342,84,239,556
290,403,59,69,342,94,249,548
299,391,60,70,371,84,246,539
279,368,62,71,400,92,255,481
268,365,59,69,406,104,243,487
279,377,66,68,413,112,251,529
257,379,69,69,417,108,270,552
244,375,70,68,403,109,253,531
265,351,66,63,332,102,248,598
267,359,62,69,364,93,251,598
253,335,60,77,363,84,248,589
275,320,56,76,360,83,229,560
280,360,53,75,416,89,236,657
257,394,62,77,440,86,254,579
270,384,63,70,408,85,257,608
284,383,56,65,416,79,286,607
263,383,55,69,409,83,288,610
252,365,55,90,444,122,283,508
248,353,49,98,440,130,258,494
232,371,48,95,459,125,253,463
245,362,51,98,447,131,241,533
254,367,54,101,443,128,229,541
266,346,54,88,372,88,249,582
278,322,55,102,434,105,251,582
267,319,56,118,403,112,243,569
284,383,56,65,416,79,286,607
263,383,55,69,409,83,288,610
252,365,55,90,444,122,283,508
248,353,49,98,440,130,258,494
232,371,48,95,459,125,253,463
245,362,51,98,447,131,241,533
254,367,54,101,443,128,229,541
266,346,54,88,372,88,249,582
278,322,55,102,434,105,251,582
267,319,56,118,403,112,243,569
261,345,64,121,479,112,239,500
259,308,62,129,498,119,233,477
303,373,67,130,479,116,241,464
298,355,65,136,458,92,227,454
324,373,67,143,499,100,231,495
314,340,54,139,426,93,224,549
305,358,54,131,409,80,228,586
253,332,49,134,464,93,210,601
234,336,48,113,418,97,209,580
293,341,44,90,366,91,247,593
349,378,58,118,471,134,230,573
365,360,58,133,512,156,220,541
353,310,55,124,449,149,201,469
382,325,56,117,441,153,242,511
347,305,56,119,486,160,205,449
289,253,46,89,406,134,202,428
277,282,46,58,332,112,209,464
281,286,46,59,411,114,228,489
273,331,49,72,440,112,224,489
246,297,50,68,386,97,212,556
349,378,58,118,471,134,230,573
365,360,58,133,512,156,220,541
353,310,55,124,449,149,201,469
382,325,56,117,441,153,242,511
347,305,56,119,486,160,205,449
289,253,46,89,406,134,202,428
277,282,46,58,332,112,209,464
281,286,46,59,411,114,228,489
273,331,49,72,440,112,224,489
246,297,50,68,386,97,212,556
231,288,52,72,419,93,233,572
231,293,51,71,464,93,227,562
235,304,57,77,460,97,213,568
210,249,55,65,448,91,193,550
205,306,58,61,496,87,207,513
221,322,56,63,471,77,209,505
216,328,58,70,479,74,212,500
243,326,51,70,518,73,217,540
241,332,49,87,533,99,215,572
230,302,44,92,502,105,227,560
220,346,50,104,522,115,250,555
209,330,51,111,491,116,250,530
180,386,59,112,397,121,286,489
184,421,64,121,485,121,276,460
209,413,62,133,519,124,265,503
204,390,64,125,522,132,244,516
230,387,65,121,564,133,265,547
247,373,62,118,565,126,245,545
255,337,56,100,493,106,248,530
255,338,58,86,464,103,259,610
220,346,50,104,522,115,250,555
209,330,51,111,491,116,250,530
180,386,59,112,397,121,286,489
184,421,64,121,485,121,276,460
209,413,62,133,519,124,265,503
204,390,64,125,522,132,244,516
230,387,65,121,564,133,265,547
247,373,62,118,565,126,245,545
255,337,56,100,493,106,248,530
255,338,58,86,464,103,259,610
281,353,54,93,455,84,260,556
274,345,50,92,417,83,257,556
262,298,48,95,438,84,249,555
243,291,53,91,411,84,246,601
235,295,52,94,411,76,227,484
238,273,58,86,424,69,203,536
254,280,60,78,429,61,188,517
298,349,63,77,445,62,179,505
349,344,60,75,483,72,196,544
358,345,62,72,469,73,218,568
341,325,52,73,408,78,218,552
338,364,56,77,417,83,232,607
301,291,49,75,386,92,242,607
259,314,51,80,369,115,250,557
230,315,47,80,397,120,234,500
239,337,51,80,402,120,251,485
224,305,44,80,399,119,233,448
220,319,48,99,573,128,215,457
224,310,51,102,566,109,205,449
249,319,52,105,603,115,203,462
341,325,52,73,408,78,218,552
338,364,56,77,417,83,232,607
301,291,49,75,386,92,242,607
259,314,51,80,369,115,250,557
230,315,47,80,397,120,234,500
239,337,51,80,402,120,251,485
224,305,44,80,399,119,233,448
220,319,48,99,573,128,215,457
224,310,51,102,566,109,205,449
249,319,52,105,603,115,203,462
245,312,51,110,613,120,201,469
262,357,50,112,602,127,224,445
251,343,45,102,457,108,231,420
232,377,46,101,477,105,279,399
202,355,45,115,472,95,277,380
182,354,44,115,464,87,276,405
183,328,55,121,484,120,280,483
175,329,58,127,482,134,267,475
184,278,62,127,447,138,277,502
196,311,63,108,371,139,278,508
207,306,63,105,413,143,287,477
181,346,62,98,365,112,271,455
191,348,60,82,343,98,277,475
200,346,52,76,396,93,255,516
190,317,50,74,403,95,249,529
188,345,53,83,375,92,246,562
185,313,49,97,419,95,229,519
193,328,49,103,448,97,230,508
187,358,52,108,511,110,198,513
200,365,53,107,506,100,203,490
207,306,63,105,413,143,287,477
181,346,62,98,365,112,271,455
191,348,60,82,343,98,277,475
200,346,52,76,396,93,255,516
190,317,50,74,403,95,249,529
188,345,53,83,375,92,246,562
185,313,49,97,419,95,229,519
193,328,49,103,448,97,230,508
187,358,52,108,511,110,198,513
200,365,53,107,506,100,203,490
197,322,49,102,589,114,203,456
186,274,43,89,576,128,233,434
188,258,42,80,553,123,225,425
249,265,45,75,496,118,249,365
258,249,45,82,506,132,250,392
270,304,46,77,390,124,223,391
309,309,49,85,498,111,232,472
301,301,53,101,552,116,234,481
251,273,47,96,504,103,204,466
259,332,73,139,618,148,245,504
243,288,78,155,664,161,259,521
214,283,78,148,580,156,236,464
244,293,77,138,521,157,234,469
242,271,79,147,622,171,216,492
249,215,58,108,526,132,198,553
294,231,49,77,479,112,181,534
282,234,54,90,534,136,202,575
266,218,51,89,543,145,210,614
263,216,50,74,457,134,206,585
232,200,48,67,480,124,176,471
243,288,78,155,664,161,259,521
214,283,78,148,580,156,236,464
244,293,77,138,521,157,234,469
242,271,79,147,622,171,216,492
249,215,58,108,526,132,198,553
294,231,49,77,479,112,181,534
282,234,54,90,534,136,202,575
266,218,51,89,543,145,210,614
263,216,50,74,457,134,206,585
232,200,48,67,480,124,176,471
185,172,51,68,466,121,175,486
202,169,46,57,415,95,135,462
186,179,48,57,426,74,138,432
199,197,47,56,408,73,158,414
234,212,48,60,439,84,161,503
231,230,45,71,481,95,163,491
224,248,44,66,476,106,169,476
238,246,40,76,555,117,164,459
233,259,40,78,542,113,155,466
193,258,38,76,491,107,163,481
240,268,40,69,464,100,163,506
233,253,42,71,468,91,156,502
223,285,50,59,353,82,149,558
220,259,50,56,405,85,147,571
236,254,48,59,388,82,140,512
198,246,44,57,396,85,173,500
200,238,41,53,370,79,181,474
200,215,34,58,375,70,188,458
219,219,35,58,351,87,217,447
211,255,37,56,335,89,224,445
240,268,40,69,464,100,163,506
233,253,42,71,468,91,156,502
223,285,50,59,353,82,149,558
220,259,50,56,405,85,147,571
236,254,48,59,388,82,140,512
198,246,44,57,396,85,173,500
200,238,41,53,370,79,181,474
200,215,34,58,375,70,188,458
219,219,35,58,351,87,217,447
211,255,37,56,335,89,224,445
200,238,37,53,346,84,222,430
225,271,41,65,450,95,218,476
249,285,47,67,442,104,226,459
230,291,47,65,447,94,214,484
228,257,48,65,486,93,213,463
239,267,51,77,472,99,202,476
210,255,52,81,395,107,212,462
201,243,48,78,409,104,202,454
231,256,52,82,386,108,208,478
251,254,50,81,347,106,201,487
236,245,51,80,476,108,235,510
256,268,51,76,514,94,217,519
248,248,48,74,512,120,223,512
235,217,42,73,506,119,227,471
226,242,42,75,504,122,257,541
230,257,39,67,371,118,243,526
215,225,33,65,319,122,252,527
216,242,36,67,309,102,280,545
211,255,37,64,316,101,277,543
206,234,38,68,335,103,265,495
236,245,51,80,476,108,235,510
256,268,51,76,514,94,217,519
248,248,48,74,512,120,223,512
235,217,42,73,506,119,227,471
226,242,42,75,504,122,257,541
230,257,39,67,371,118,243,526
215,225,33,65,319,122,252,527
216,242,36,67,309,102,280,545
211,255,37,64,316,101,277,543
206,234,38,68,335,103,265,495
209,216,38,77,360,106,268,533
232,201,41,71,365,98,275,533
255,190,42,86,431,86,279,554
274,218,42,88,441,76,263,556
288,236,42,80,430,65,257,549
285,251,42,78,475,90,247,518
262,254,40,83,467,94,246,519
268,271,38,80,446,109,221,485
251,240,36,82,487,121,237,498
226,210,34,85,473,124,226,504
218,182,34,109,479,113,206,464
214,160,32,162,666,129,189,413
164,112,41,239,813,161,153,361
136,87,44,243,782,159,102,295
134,86,45,246,787,160,116,279
125,76,45,241,749,153,104,264
117,75,46,287,774,184,99,260
107,51,54,283,696,235,113,258
90,61,64,351,789,322,124,260
73,75,79,464,965,433,112,163
218,182,34,109,479,113,206,464
214,160,32,162,666,129,189,413
164,112,41,239,813,161,153,361
136,87,44,243,782,159,102,295
134,86,45,246,787,160,116,279
125,76,45,241,749,153,104,264
117,75,46,287,774,184,99,260
107,51,54,283,696,235,113,258
90,61,64,351,789,322,124,260
73,75,79,464,965,433,112,163
77,98,102,513,1071,542,133,130
77,109,116,524,1042,548,134,116
74,112,115,536,1122,529,125,107
82,126,113,507,1262,530,124,154
82,127,104,414,1178,451,113,184
85,143,87,366,1183,337,88,236
84,144,68,323,1174,328,84,261
78,145,59,258,1124,321,79,263
74,140,50,251,917,247,63,233
77,153,53,242,870,233,59,218
84,127,46,224,776,195,55,178
98,132,49,180,675,155,59,194
104,140,47,182,617,133,62,238
108,131,45,154,627,110,61,247
102,107,42,157,689,114,58,238
89,114,37,157,682,135,49,232
71,111,30,143,666,135,43,184
82,95,32,137,674,135,42,131
75,98,32,137,680,129,50,122
83,122,31,149,708,137,56,178
554,373,58,65,351,84,197,676
588,376,61,59,226,78,236,762
644,402,74,64,151,91,265,866
760,391,74,63,145,109,341,1029
702,338,69,64,140,118,391,1009
634,319,71,76,133,132,430,998
672,461,84,75,132,151,466,1071
663,452,77,71,115,148,480,1052
524,507,82,69,124,140,471,962
501,539,94,73,206,147,457,986
565,574,104,69,219,151,432,1024
564,545,98,98,306,144,428,927
551,572,106,110,349,156,462,938
562,544,106,116,351,159,451,935
523,549,113,122,310,154,495,905
481,546,106,118,294,137,486,822
432,477,107,96,257,131,454,804
432,460,104,84,211,115,450,766
413,452,111,89,236,112,419,856
415,452,98,87,329,107,369,837
369,439,94,89,370,108,399,860
319,424,90,93,441,102,415,862
289,401,86,91,457,108,376,848
304,417,81,93,454,118,416,776
285,415,78,90,419,121,419,802
320,450,85,88,424,118,403,724
349,448,83,87,314,118,384,764
372,517,82,85,314,111,383,742
382,504,77,75,347,106,357,672
390,470,76,76,336,110,317,644
369,439,94,89,370,108,399,860
319,424,90,93,441,102,415,862
289,401,86,91,457,108,376,848
304,417,81,93,454,118,416,776
285,415,78,90,419,121,419,802
320,450,85,88,424,118,403,724
349,448,83,87,314,118,384,764
372,517,82,85,314,111,383,742
382,504,77,75,347,106,357,672
390,470,76,76,336,110,317,644
368,405,65,78,368,109,297,713
340,407,61,78,404,117,294,693
319,354,66,77,386,114,281,723
310,412,62,70,341,111,259,765
310,440,59,58,322,106,261,752
299,426,65,60,313,113,259,690
296,445,67,62,282,114,273,657
260,427,62,64,275,116,250,619
251,360,61,63,299,109,224,558
275,369,76,96,443,138,253,609
266,399,72,103,436,145,273,646
274,380,72,101,488,143,257,673
307,430,72,103,499,153,337,663
297,448,71,107,491,153,351,667
272,400,55,85,428,137,330,555
290,383,53,77,456,141,320,509
307,394,51,77,444,143,321,483
276,345,51,76,463,131,235,478
283,341,52,76,461,129,223,488
268,340,53,76,445,124,237,511
266,399,72,103,436,145,273,646
274,380,72,101,488,143,257,673
307,430,72,103,499,153,337,663
297,448,71,107,491,153,351,667
272,400,55,85,428,137,330,555
290,383,53,77,456,141,320,509
307,394,51,77,444,143,321,483
276,345,51,76,463,131,235,478
283,341,52,76,461,129,223,488
268,340,53,76,445,124,237,511
291,318,57,76,396,115,255,556
258,320,61,79,405,107,264,550
253,302,59,92,417,109,267,570
312,296,61,97,489,117,277,555
319,298,59,91,460,108,259,531
320,360,54,107,534,119,286,564
327,340,47,109,522,120,265,519
347,326,54,115,506,124,288,536
395,352,56,132,546,140,327,505
395,352,55,138,563,146,322,517
364,310,57,122,466,128,268,445
399,378,62,119,493,167,299,467
385,384,57,108,473,166,274,409
277,370,50,76,335,146,205,380
295,452,65,81,436,144,246,373
296,437,68,92,477,154,246,360
295,382,65,102,459,111,284,463
305,398,64,98,477,114,285,496
322,383,63,103,494,126,305,556
357,297,52,98,461,123,286,652
364,310,57,122,466,128,268,445
399,378,62,119,493,167,299,467
385,384,57,108,473,166,274,409
277,370,50,76,335,146,205,380
295,452,65,81,436,144,246,373
296,437,68,92,477,154,246,360
295,382,65,102,459,111,284,463
305,398,64,98,477,114,285,496
322,383,63,103,494,126,305,556
357,297,52,98,461,123,286,652
365,345,53,99,573,116,327,668
328,343,51,87,546,109,278,610
319,340,48,92,554,102,316,627
300,326,54,91,570,96,299,610
231,338,53,84,520,97,301,523
220,308,46,75,351,91,271,593
238,327,51,76,352,104,271,637
247,308,52,64,325,100,224,631
244,324,47,66,272,98,236,679
243,301,51,73,323,106,231,686
235,291,51,70,363,106,216,633
227,292,58,81,422,96,205,646
228,307,59,80,458,93,238,646
234,289,59,75,469,92,231,595
245,288,55,70,437,88,256,575
255,271,56,71,469,84,269,563
264,302,47,58,437,83,268,517
255,286,46,56,464,89,265,494
242,264,43,56,465,86,254,447
270,319,44,55,469,80,251,526
235,291,51,70,363,106,216,633
227,292,58,81,422,96,205,646
228,307,59,80,458,93,238,646
234,289,59,75,469,92,231,595
245,288,55,70,437,88,256,575
255,271,56,71,469,84,269,563
264,302,47,58,437,83,268,517
255,286,46,56,464,89,265,494
242,264,43,56,465,86,254,447
270,319,44,55,469,80,251,526
260,320,46,55,476,93,246,493
295,283,65,90,535,105,270,457
297,305,69,95,520,118,266,474
301,308,71,96,522,123,264,461
276,253,71,99,527,129,237,412
313,333,71,122,522,152,274,479
256,317,52,107,448,160,243,483
242,300,46,104,398,150,217,452
254,328,60,127,526,171,237,505
235,327,59,132,529,165,233,453
274,339,69,112,472,140,204,456
284,346,71,113,489,129,230,528
290,342,71,119,503,130,227,517
320,358,72,96,409,98,246,495
333,375,72,100,475,109,260,534
292,319,61,99,480,110,229,472
321,340,62,127,630,123,226,467
335,349,60,134,658,129,232,473
294,307,57,139,689,137,218,500
292,318,58,133,657,131,213,473
274,339,69,112,472,140,204,456
284,346,71,113,489,129,230,528
290,342,71,119,503,130,227,517
320,358,72,96,409,98,246,495
333,375,72,100,475,109,260,534
292,319,61,99,480,110,229,472
321,340,62,127,630,123,226,467
335,349,60,134,658,129,232,473
294,307,57,139,689,137,218,500
292,318,58,133,657,131,213,473
267,298,62,139,686,136,243,500
219,254,61,111,563,139,220,501
208,264,68,97,528,134,255,518
226,366,59,104,514,141,238,473
208,332,57,101,486,143,226,469
215,352,74,124,523,141,314,558
218,368,75,133,526,136,339,486
194,346,68,132,508,136,322,452
181,248,67,119,445,117,338,499
208,319,78,150,567,159,354,514
232,288,60,133,518,168,310,442
238,366,61,125,504,155,290,551
241,378,63,145,603,169,280,588
270,429,72,160,678,180,260,622
253,395,60,131,584,143,236,615
251,425,64,121,554,125,180,699
289,436,70,121,565,129,211,707
302,439,70,99,487,109,240,692
289,398,62,81,420,99,238,658
313,394,61,77,404,91,250,660
232,288,60,133,518,168,310,442
238,366,61,125,504,155,290,551
241,378,63,145,603,169,280,588
270,429,72,160,678,180,260,622
253,395,60,131,584,143,236,615
251,425,64,121,554,125,180,699
289,436,70,121,565,129,211,707
302,439,70,99,487,109,240,692
289,398,62,81,420,99,238,658
313,394,61,77,404,91,250,660
317,386,61,84,462,94,252,581
282,280,49,74,424,86,218,481
296,265,49,77,406,98,220,499
286,238,46,85,457,116,225,458
269,218,51,87,473,120,266,499
229,202,45,85,468,120,257,448
219,189,45,86,470,122,281,441
186,243,46,84,500,121,248,422
174,247,46,93,476,111,262,453
190,284,42,98,504,124,222,530
188,275,43,94,516,139,218,556
206,298,47,94,524,140,188,610
223,284,48,92,517,136,227,619
279,320,49,68,468,136,208,656
277,304,49,61,455,126,218,586
314,315,49,60,397,108,239,617
317,327,47,59,395,108,252,564
313,315,45,67,424,117,227,579
270,273,42,75,412,108,231,520
268,282,48,91,458,112,251,535
188,275,43,94,516,139,218,556
206,298,47,94,524,140,188,610
223,284,48,92,517,136,227,619
279,320,49,68,468,136,208,656
277,304,49,61,455,126,218,586
314,315,49,60,397,108,239,617
317,327,47,59,395,108,252,564
313,315,45,67,424,117,227,579
270,273,42,75,412,108,231,520
268,282,48,91,458,112,251,535
222,268,45,95,473,111,226,464
195,241,45,98,463,113,269,460
193,284,59,115,551,147,279,420
183,283,60,115,572,151,272,388
159,256,54,102,502,143,233,302
212,281,58,122,539,186,253,418
212,267,57,123,529,189,193,401
206,217,43,103,419,157,165,442
233,304,58,106,424,157,189,477
229,305,58,110,430,159,190,473
287,315,63,95,413,114,264,517
325,362,70,99,451,112,309,556
341,351,69,95,408,109,320,530
342,301,56,84,369,101,310,553
351,312,57,95,474,121,322,606
302,320,48,86,435,110,256,527
269,277,47,110,490,142,245,553
256,285,49,117,503,146,227,543
369,381,55,122,522,152,243,571
381,381,55,121,494,149,226,564
287,315,63,95,413,114,264,517
325,362,70,99,451,112,309,556
341,351,69,95,408,109,320,530
342,301,56,84,369,101,310,553
351,312,57,95,474,121,322,606
302,320,48,86,435,110,256,527
269,277,47,110,490,142,245,553
256,285,49,117,503,146,227,543
369,381,55,122,522,152,243,571
381,381,55,121,494,149,226,564
376,344,56,126,501,157,230,592
385,366,51,124,517,140,195,579
386,365,54,124,533,154,199,598
272,293,49,118,506,145,185,549
285,299,49,113,515,153,188,515
289,319,47,105,535,144,181,491
283,325,46,77,438,129,171,441
291,360,44,79,523,127,187,490
298,334,48,89,525,135,202,542
265,327,46,87,452,112,211,592
270,327,47,101,515,127,205,572
272,308,51,102,526,133,223,603
251,274,48,95,409,115,216,571
246,289,44,88,434,106,225,538
254,289,47,87,459,105,217,542
228,283,56,81,398,100,214,606
211,275,53,79,397,98,199,588
217,302,55,80,409,100,226,654
226,292,55,80,412,102,188,635
283,280,54,92,429,115,197,596
270,327,47,101,515,127,205,572
272,308,51,102,526,133,223,603
251,274,48,95,409,115,216,571
246,289,44,88,434,106,225,538
254,289,47,87,459,105,217,542
228,283,56,81,398,100,214,606
211,275,53,79,397,98,199,588
217,302,55,80,409,100,226,654
226,292,55,80,412,102,188,635
283,280,54,92,429,115,197,596
320,281,52,89,376,114,234,526
321,274,51,93,404,114,233,508
339,253,54,90,402,110,289,474
373,235,56,92,363,117,344,518
343,236,56,80,318,105,342,499
305,222,49,83,360,108,379,493
299,262,50,94,421,126,381,561
264,232,42,95,406,127,326,471
213,297,60,104,429,138,379,478
193,306,59,113,464,153,377,470
181,297,62,107,442,153,318,442
186,275,63,90,308,131,325,423
192,275,64,92,356,135,320,428
159,201,48,82,344,124,174,353
155,229,51,70,294,116,230,427
175,230,51,79,354,119,259,445
219,228,49,91,371,123,267,406
233,242,49,90,374,116,269,415
252,239,45,90,421,114,278,446
301,267,41,86,469,103,247,414
181,297,62,107,442,153,318,442
186,275,63,90,308,131,325,423
192,275,64,92,356,135,320,428
159,201,48,82,344,124,174,353
155,229,51,70,294,116,230,427
175,230,51,79,354,119,259,445
219,228,49,91,371,123,267,406
233,242,49,90,374,116,269,415
252,239,45,90,421,114,278,446
301,267,41,86,469,103,247,414
317,317,40,85,497,95,224,427
313,327,41,84,528,96,192,465
312,336,43,85,535,96,222,478
304,347,42,83,510,93,242,453
273,309,43,83,527,95,237,452
248,272,46,77,486,90,229,481
221,251,42,70,469,87,232,448
208,272,43,67,438,89,245,452
244,245,43,67,430,87,226,474
222,258,41,67,365,90,231,460
266,273,41,63,383,87,248,419
261,281,42,57,369,95,242,410
269,250,41,59,380,95,218,401
241,262,42,64,435,95,228,452
253,302,46,63,419,86,217,472
204,289,46,64,382,100,196,471
224,312,50,68,431,94,202,529
241,304,48,64,420,102,178,526
242,314,52,58,384,107,194,467
251,272,52,65,499,115,229,544
266,273,41,63,383,87,248,419
261,281,42,57,369,95,242,410
269,250,41,59,380,95,218,401
241,262,42,64,435,95,228,452
253,302,46,63,419,86,217,472
204,289,46,64,382,100,196,471
224,312,50,68,431,94,202,529
241,304,48,64,420,102,178,526
242,314,52,58,384,107,194,467
251,272,52,65,499,115,229,544
256,282,49,63,490,106,235,556
251,246,47,74,499,126,238,503
233,243,51,78,499,120,247,543
263,238,46,97,552,116,229,561
282,243,46,96,477,118,207,545
280,203,47,95,491,116,210,543
278,196,45,84,429,89,207,545
275,198,44,85,505,92,194,496
238,161,44,77,457,91,178,454
196,114,41,78,432,86,190,402
200,118,37,82,440,84,169,387
181,110,36,81,461,100,161,395
175,95,33,81,358,101,158,390
159,95,34,77,325,115,152,379
126,69,32,184,490,161,91,296
108,76,55,282,592,210,89,253
106,82,73,398,795,304,97,146
114,125,100,508,963,327,105,109
125,131,105,526,1110,354,101,96
124,141,109,544,1147,412,115,124
200,118,37,82,440,84,169,387
181,110,36,81,461,100,161,395
175,95,33,81,358,101,158,390
159,95,34,77,325,115,152,379
126,69,32,184,490,161,91,296
108,76,55,282,592,210,89,253
106,82,73,398,795,304,97,146
114,125,100,508,963,327,105,109
125,131,105,526,1110,354,101,96
124,141,109,544,1147,412,115,124
118,135,103,517,1191,409,115,207
116,133,95,450,1105,352,98,243
93,117,70,335,1015,335,88,254
95,124,67,311,877,306,92,283
102,131,58,227,816,218,78,300
105,146,54,223,745,223,70,272
100,143,48,202,737,211,65,255
106,161,50,199,788,220,66,256
103,163,46,205,812,219,68,252
96,153,45,205,759,195,67,236
98,150,46,184,829,159,75,215
98,151,43,171,791,170,75,203
85,113,40,180,857,173,72,190
82,118,39,163,864,164,64,165
102,130,47,178,919,177,59,177
95,115,46,166,825,165,49,211
94,113,51,188,966,170,53,208
97,112,50,159,831,160,53,209
90,103,53,168,816,187,51,202
64,94,48,147,750,176,52,172
836,472,82,80,158,141,342,840
734,442,82,86,145,170,375,916
649,384,85,84,138,175,374,1023
584,439,95,89,119,226,527,1191
500,435,106,96,122,246,552,1190
463,485,113,99,148,281,572,1212
514,533,114,103,219,351,586,1189
451,595,121,104,214,363,600,1115
442,563,112,98,224,416,511,895
428,569,107,98,252,441,510,884
421,527,101,102,329,428,499,850
368,522,99,96,308,387,486,832
393,520,109,101,328,417,476,808
346,506,112,108,358,381,497,792
346,468,106,111,389,380,478,751
364,454,102,110,414,476,498,765
359,401,103,116,429,496,498,793
348,370,84,118,482,508,482,807
356,417,91,121,482,512,456,824
371,399,92,108,472,502,469,863
355,458,98,104,419,466,432,851
365,536,97,95,420,492,445,792
340,542,108,91,403,500,512,848
324,568,115,93,407,498,527,891
345,587,116,103,429,558,523,847
365,566,119,114,416,524,521,918
349,541,120,112,384,478,490,957
366,486,104,106,333,441,403,832
379,404,89,97,297,442,353,768
335,412,90,91,252,416,296,735
355,458,98,104,419,466,432,851
365,536,97,95,420,492,445,792
340,542,108,91,403,500,512,848
324,568,115,93,407,498,527,891
345,587,116,103,429,558,523,847
365,566,119,114,416,524,521,918
349,541,120,112,384,478,490,957
366,486,104,106,333,441,403,832
379,404,89,97,297,442,353,768
335,412,90,91,252,416,296,735
329,474,85,78,249,422,318,678
323,460,83,79,257,478,323,642
328,475,83,78,238,483,346,689
285,539,77,74,228,492,341,693
304,519,66,71,176,464,329,715
326,435,66,70,150,440,292,665
325,406,60,67,136,369,303,640
298,418,58,67,133,369,266,608
311,341,66,67,183,325,257,698
306,367,74,69,246,455,306,750
266,368,69,75,274,518,331,752
272,384,74,83,279,541,310,750
293,370,79,84,286,549,322,753
309,384,80,88,273,605,322,686
298,369,83,94,234,507,305,679
347,407,93,92,202,488,288,703
365,429,101,97,209,523,303,756
390,461,100,93,212,572,295,798
370,466,95,89,239,533,336,831
381,501,87,81,228,534,320,779
266,368,69,75,274,518,331,752
272,384,74,83,279,541,310,750
293,370,79,84,286,549,322,753
309,384,80,88,273,605,322,686
298,369,83,94,234,507,305,679
347,407,93,92,202,488,288,703
365,429,101,97,209,523,303,756
390,461,100,93,212,572,295,798
370,466,95,89,239,533,336,831
381,501,87,81,228,534,320,779
332,502,77,72,233,519,336,720
332,462,61,56,225,471,313,679
307,470,63,58,214,400,322,640
312,489,66,64,172,366,298,621
315,534,68,64,165,357,325,638
318,508,67,66,159,375,337,731
311,558,83,71,157,414,396,716
312,527,82,73,163,427,398,693
332,514,79,69,143,425,404,704
326,424,80,73,141,411,379,687
331,428,80,70,129,438,366,595
307,403,66,65,118,383,332,614
298,389,60,60,114,391,308,634
299,369,56,55,111,440,285,613
321,403,53,48,108,485,299,579
310,430,64,57,119,470,269,606
319,418,63,64,123,483,238,597
303,424,65,69,113,452,252,596
273,434,71,69,110,414,241,632
254,432,69,67,106,404,231,662
331,428,80,70,129,438,366,595
307,403,66,65,118,383,332,614
298,389,60,60,114,391,308,634
299,369,56,55,111,440,285,613
321,403,53,48,108,485,299,579
310,430,64,57,119,470,269,606
319,418,63,64,123,483,238,597
303,424,65,69,113,452,252,596
273,434,71,69,110,414,241,632
254,432,69,67,106,404,231,662
246,388,59,67,100,431,290,691
267,380,59,69,97,452,304,699
276,366,59,70,104,523,288,705
296,363,60,78,108,520,305,624
294,384,64,79,118,497,299,656
326,415,62,79,151,438,272,660
320,382,60,72,158,433,243,618
314,387,59,66,149,340,268,599
290,392,59,55,149,381,266,609
270,318,60,55,155,405,267,623
225,303,60,47,128,411,279,573
181,390,68,49,133,469,310,616
194,416,68,48,138,530,296,598
208,392,65,49,133,531,305,592
237,413,62,54,129,536,293,511
233,412,60,51,122,543,261,515
249,362,54,52,111,475,221,506
245,440,58,62,125,454,242,508
276,527,67,66,136,438,205,558
262,550,71,63,140,491,217,611
225,303,60,47,128,411,279,573
181,390,68,49,133,469,310,616
194,416,68,48,138,530,296,598
208,392,65,49,133,531,305,592
237,413,62,54,129,536,293,511
233,412,60,51,122,543,261,515
249,362,54,52,111,475,221,506
245,440,58,62,125,454,242,508
276,527,67,66,136,438,205,558
262,550,71,63,140,491,217,611
285,568,76,66,155,528,249,637
292,541,73,61,148,575,262,644
323,450,69,55,133,554,242,638
293,363,61,51,127,547,239,560
287,347,54,49,110,486,237,505
293,349,50,49,89,469,199,422
282,418,49,47,88,415,191,353
238,430,49,44,92,402,174,382
248,447,52,48,86,462,180,398
268,450,58,52,94,455,175,446
252,458,60,49,93,407,165,453
261,400,60,54,95,429,217,464
295,462,74,59,106,466,282,469
279,431,69,58,114,381,282,458
263,394,68,55,112,392,283,380
333,412,94,78,125,451,291,422
320,413,95,79,121,441,245,394
299,346,86,74,108,390,167,349
335,364,90,72,101,393,186,413
339,387,94,74,102,362,195,415
252,458,60,49,93,407,165,453
261,400,60,54,95,429,217,464
295,462,74,59,106,466,282,469
279,431,69,58,114,381,282,458
263,394,68,55,112,392,283,380
333,412,94,78,125,451,291,422
320,413,95,79,121,441,245,394
299,346,86,74,108,390,167,349
335,364,90,72,101,393,186,413
339,387,94,74,102,362,195,415
292,306,66,49,96,364,233,422
308,331,67,45,104,364,242,512
299,310,65,46,124,406,248,550
263,320,59,45,125,433,230,529
249,310,47,43,128,452,240,582
203,346,46,43,122,413,192,586
162,328,45,43,123,429,181,524
210,339,52,52,124,513,191,515
207,304,51,54,121,486,183,504
237,344,60,58,120,511,189,498
245,308,57,57,122,507,199,451
248,313,56,55,114,467,197,450
211,434,59,46,98,332,191,409
240,438,64,45,97,362,198,404
235,453,69,42,90,356,186,431
233,450,70,43,78,379,171,423
286,475,71,45,82,394,193,496
287,396,63,46,92,407,199,510
263,394,60,47,93,375,190,501
240,319,39,48,98,324,211,426
245,308,57,57,122,507,199,451
248,313,56,55,114,467,197,450
211,434,59,46,98,332,191,409
240,438,64,45,97,362,198,404
235,453,69,42,90,356,186,431
233,450,70,43,78,379,171,423
286,475,71,45,82,394,193,496
287,396,63,46,92,407,199,510
263,394,60,47,93,375,190,501
240,319,39,48,98,324,211,426
236,338,43,55,141,316,223,514
159,288,42,55,143,297,207,426
158,245,53,58,133,293,205,422
173,230,54,59,139,370,228,421
191,310,77,59,137,363,221,452
205,381,92,65,107,448,252,424
208,387,93,67,102,462,253,409
212,394,91,64,104,475,256,479
211,394,93,66,103,443,263,509
190,354,82,61,105,448,233,488
184,249,63,50,91,362,200,454
197,261,59,45,85,340,200,466
194,288,54,43,89,327,192,452
189,299,52,44,91,413,184,439
192,299,43,48,92,478,206,424
179,301,41,46,89,457,187,387
180,310,47,53,95,539,201,405
171,290,50,57,91,535,219,309
155,273,46,53,80,457,193,252
157,277,51,46,80,421,174,274
184,249,63,50,91,362,200,454
197,261,59,45,85,340,200,466
194,288,54,43,89,327,192,452
189,299,52,44,91,413,184,439
192,299,43,48,92,478,206,424
179,301,41,46,89,457,187,387
180,310,47,53,95,539,201,405
171,290,50,57,91,535,219,309
155,273,46,53,80,457,193,252
157,277,51,46,80,421,174,274
176,299,53,50,117,474,206,366
177,274,48,45,127,416,185,341
175,261,44,41,124,422,164,402
223,273,44,41,122,429,235,446
228,246,42,44,118,396,240,459
224,224,43,41,87,366,217,455
226,251,43,37,71,343,219,461
232,245,44,35,76,356,229,435
196,247,44,34,77,354,169,425
185,276,41,31,73,350,175,443
176,334,40,31,70,399,210,406
151,318,39,31,63,387,210,387
152,361,47,34,75,464,222,428
167,352,46,33,87,471,243,408
161,321,45,32,88,493,233,357
165,251,41,32,89,431,202,336
190,323,52,42,165,473,247,414
211,291,45,46,169,368,221,339
193,286,44,46,164,344,188,327
224,355,55,53,168,364,215,361
176,334,40,31,70,399,210,406
151,318,39,31,63,387,210,387
152,361,47,34,75,464,222,428
167,352,46,33,87,471,243,408
161,321,45,32,88,493,233,357
165,251,41,32,89,431,202,336
190,323,52,42,165,473,247,414
211,291,45,46,169,368,221,339
193,286,44,46,164,344,188,327
224,355,55,53,168,364,215,361
232,356,58,53,170,391,221,369
219,313,49,48,112,387,181,328
209,315,52,48,95,427,215,336
212,325,56,50,99,464,231,370
176,251,43,46,96,442,212,360
186,326,49,47,88,411,219,366
196,306,50,46,69,408,214,394
193,376,53,42,65,362,171,410
203,371,48,41,68,329,154,396
220,369,53,47,106,409,152,391
195,301,45,48,111,412,133,387
213,338,48,48,124,396,138,386
199,241,45,45,127,465,144,393
194,254,44,46,132,496,159,405
195,307,42,40,109,422,171,415
189,300,41,37,104,414,167,394
166,248,42,41,97,421,178,383
164,264,38,47,102,355,185,369
164,265,40,49,95,300,170,332
145,209,38,48,93,319,155,338
195,301,45,48,111,412,133,387
213,338,48,48,124,396,138,386
199,241,45,45,127,465,144,393
194,254,44,46,132,496,159,405
195,307,42,40,109,422,171,415
189,300,41,37,104,414,167,394
166,248,42,41,97,421,178,383
164,264,38,47,102,355,185,369
164,265,40,49,95,300,170,332
145,209,38,48,93,319,155,338
146,222,39,49,98,348,154,347
138,220,32,46,90,304,132,319
153,245,41,43,85,349,187,412
143,276,44,44,89,383,189,430
133,270,43,42,80,349,185,395
130,262,41,40,73,311,184,391
185,275,45,41,118,386,213,403
185,231,39,42,130,335,177,308
188,162,37,38,124,286,171,294
199,192,37,37,122,294,178,297
235,233,51,44,131,339,188,335
193,260,53,45,97,291,160,413
215,297,56,43,83,349,151,450
217,301,55,40,88,365,150,470
244,298,58,42,92,381,146,521
234,279,50,39,86,342,141,534
245,269,46,39,85,336,180,446
216,235,38,40,79,326,165,424
225,237,41,47,95,440,174,425
193,248,42,47,94,459,195,392
235,233,51,44,131,339,188,335
193,260,53,45,97,291,160,413
215,297,56,43,83,349,151,450
217,301,55,40,88,365,150,470
244,298,58,42,92,381,146,521
234,279,50,39,86,342,141,534
245,269,46,39,85,336,180,446
216,235,38,40,79,326,165,424
225,237,41,47,95,440,174,425
193,248,42,47,94,459,195,392
181,268,43,46,92,493,192,414
179,250,44,42,90,484,168,422
182,268,47,41,91,475,180,434
186,268,46,34,69,396,197,434
183,317,43,33,70,375,181,408
167,296,41,31,76,353,182,367
152,298,40,34,72,338,170,383
169,328,40,38,75,408,185,364
153,342,45,40,77,428,177,363
164,305,45,41,80,417,167,457
193,306,45,42,79,421,197,475
187,303,42,38,80,434,199,454
180,255,43,35,80,358,176,483
198,296,43,32,81,300,175,488
190,282,40,31,77,313,192,427
167,298,40,30,83,304,157,380
206,317,42,33,85,334,166,399
211,318,41,34,78,338,197,370
192,309,43,35,78,351,201,414
205,308,48,39,80,382,188,398
193,306,45,42,79,421,197,475
187,303,42,38,80,434,199,454
180,255,43,35,80,358,176,483
198,296,43,32,81,300,175,488
190,282,40,31,77,313,192,427
167,298,40,30,83,304,157,380
206,317,42,33,85,334,166,399
211,318,41,34,78,338,197,370
192,309,43,35,78,351,201,414
205,308,48,39,80,382,188,398
207,331,49,39,72,381,195,434
178,313,49,38,69,385,188,459
167,335,49,36,82,400,162,464
176,307,49,43,86,396,143,401
171,320,49,43,87,380,149,435
168,281,49,46,94,402,141,407
159,292,51,50,99,375,140,381
182,267,54,54,92,396,160,405
209,256,49,50,85,399,167,430
229,240,49,50,87,409,167,456
229,237,48,48,79,395,174,462
245,238,45,42,72,383,198,456
222,230,43,69,73,311,172,392
185,217,42,122,200,285,157,346
146,197,51,233,476,232,148,237
148,196,73,308,660,278,138,186
114,159,91,322,774,300,100,125
109,140,96,378,872,320,104,107
156,175,116,497,998,353,107,102
153,173,115,491,1020,401,112,100
229,237,48,48,79,395,174,462
245,238,45,42,72,383,198,456
222,230,43,69,73,311,172,392
185,217,42,122,200,285,157,346
146,197,51,233,476,232,148,237
148,196,73,308,660,278,138,186
114,159,91,322,774,300,100,125
109,140,96,378,872,320,104,107
156,175,116,497,998,353,107,102
153,173,115,491,1020,401,112,100
153,173,112,478,1043,359,108,97
156,170,105,538,1037,352,97,92
153,165,105,584,1076,382,96,89
105,125,85,495,1045,372,92,81
130,135,100,502,1011,328,76,90
131,137,94,529,1068,355,79,114
162,205,90,490,1053,354,74,120
164,216,90,400,1025,316,68,124
166,225,87,394,996,292,64,127
152,226,65,344,939,278,63,112
141,217,56,264,793,208,50,88
125,251,48,226,834,173,46,72
135,276,38,204,774,133,38,136
139,277,37,173,690,144,46,155
134,273,36,184,724,144,45,159
132,272,40,170,711,152,51,164
107,190,39,132,578,149,53,162
123,212,48,128,568,182,62,113
112,208,51,123,568,163,57,81
118,227,46,89,604,167,58,79
694,612,72,70,131,89,245,619
717,582,91,69,118,99,240,681
679,614,106,75,104,147,293,824
615,652,119,81,102,236,335,960
563,676,139,99,134,309,426,1043
580,683,144,104,139,337,476,1099
569,672,147,122,182,420,625,1066
542,651,141,126,290,488,681,1009
514,675,138,139,353,488,703,939
587,688,125,141,387,478,729,866
611,660,142,152,427,525,739,907
607,663,131,148,448,487,654,970
615,655,128,164,519,495,574,1003
594,581,126,160,555,486,587,1001
561,586,133,160,536,463,499,1006
521,517,108,148,526,402,481,986
509,549,101,139,507,421,461,983
504,587,103,111,424,363,492,912
487,557,92,96,359,389,430,923
443,530,76,77,390,397,463,883
419,536,84,80,372,430,412,870
395,561,91,81,373,451,426,822
389,520,100,99,376,447,423,821
439,559,123,113,364,414,425,797
418,545,126,116,330,467,393,825
408,572,126,113,319,491,398,786
399,523,128,111,339,446,353,717
411,563,125,98,302,513,322,738
343,523,103,78,309,507,301,736
346,501,108,82,331,486,280,685
419,536,84,80,372,430,412,870
395,561,91,81,373,451,426,822
389,520,100,99,376,447,423,821
439,559,123,113,364,414,425,797
418,545,126,116,330,467,393,825
408,572,126,113,319,491,398,786
399,523,128,111,339,446,353,717
411,563,125,98,302,513,322,738
343,523,103,78,309,507,301,736
346,501,108,82,331,486,280,685
361,482,93,80,356,458,314,671
347,476,97,95,382,518,307,718
346,473,89,91,393,435,277,665
338,511,98,94,364,447,266,652
358,499,91,102,457,429,288,631
335,536,100,103,459,418,263,561
360,563,91,96,471,337,290,575
361,545,88,96,476,319,299,642
366,508,82,94,479,325,341,648
327,544,79,83,417,377,323,691
334,506,73,82,432,357,329,742
349,497,73,74,380,371,317,717
328,497,74,69,416,417,306,670
319,506,69,71,434,421,272,596
336,477,74,65,406,429,271,568
326,456,70,64,367,426,238,498
268,460,83,77,369,462,245,600
275,496,94,90,280,428,258,572
262,482,96,88,251,396,223,584
250,486,98,86,224,328,272,561
334,506,73,82,432,357,329,742
349,497,73,74,380,371,317,717
328,497,74,69,416,417,306,670
319,506,69,71,434,421,272,596
336,477,74,65,406,429,271,568
326,456,70,64,367,426,238,498
268,460,83,77,369,462,245,600
275,496,94,90,280,428,258,572
262,482,96,88,251,396,223,584
250,486,98,86,224,328,272,561
259,520,118,114,391,521,296,582
259,476,110,109,402,507,276,414
249,465,104,104,404,598,318,514
287,500,104,116,520,646,327,526
292,524,109,119,527,648,295,535
283,472,85,101,457,528,274,541
327,551,93,103,468,512,288,584
326,535,88,96,462,407,238,561
313,502,86,82,330,357,243,558
293,453,67,78,315,485,249,545
304,499,69,69,297,473,248,563
268,422,56,60,258,507,263,551
243,436,70,70,278,526,244,512
266,427,71,78,306,543,253,533
265,431,73,75,301,434,235,502
257,420,78,80,335,442,269,536
265,417,77,81,393,405,234,512
290,429,74,78,387,394,238,514
255,422,70,76,400,377,229,489
278,435,69,79,410,387,244,534
304,499,69,69,297,473,248,563
268,422,56,60,258,507,263,551
243,436,70,70,278,526,244,512
266,427,71,78,306,543,253,533
265,431,73,75,301,434,235,502
257,420,78,80,335,442,269,536
265,417,77,81,393,405,234,512
290,429,74,78,387,394,238,514
255,422,70,76,400,377,229,489
278,435,69,79,410,387,244,534
286,395,63,83,393,376,199,454
298,449,75,83,322,380,215,473
315,395,74,84,343,446,236,479
314,398,76,79,297,426,213,446
305,381,73,79,300,409,225,498
337,391,85,85,326,451,289,550
311,302,69,88,349,437,280,533
265,268,59,82,314,340,259,496
270,292,64,83,337,361,284,562
245,259,62,80,351,349,254,462
154,270,52,58,276,269,176,375
215,395,76,56,266,284,246,512
216,410,80,67,423,296,266,520
228,423,80,70,424,325,245,492
244,434,85,72,447,362,268,519
257,425,83,85,492,373,291,558
218,331,62,81,516,349,288,487
243,320,56,73,402,340,281,552
222,278,56,73,383,342,310,599
238,308,63,74,377,337,328,636
154,270,52,58,276,269,176,375
215,395,76,56,266,284,246,512
216,410,80,67,423,296,266,520
228,423,80,70,424,325,245,492
244,434,85,72,447,362,268,519
257,425,83,85,492,373,291,558
218,331,62,81,516,349,288,487
243,320,56,73,402,340,281,552
222,278,56,73,383,342,310,599
238,308,63,74,377,337,328,636
266,296,65,64,345,398,343,642
259,316,69,69,322,405,302,655
245,327,72,70,383,408,306,680
300,345,67,64,388,386,275,698
297,353,57,60,357,368,266,691
289,369,53,55,362,306,235,692
304,345,53,47,337,325,249,697
309,371,55,49,273,326,242,628
263,362,54,54,266,330,239,566
264,375,58,54,255,331,216,533
271,359,64,59,224,333,201,519
260,365,61,59,267,300,178,487
244,323,54,60,322,331,158,461
261,349,56,61,326,322,169,456
266,405,57,69,405,356,141,471
228,408,47,70,409,338,159,435
228,447,52,93,534,410,162,442
235,469,54,100,561,442,163,459
210,444,54,99,553,424,149,425
200,431,84,120,574,466,183,535
271,359,64,59,224,333,201,519
260,365,61,59,267,300,178,487
244,323,54,60,322,331,158,461
261,349,56,61,326,322,169,456
266,405,57,69,405,356,141,471
228,408,47,70,409,338,159,435
228,447,52,93,534,410,162,442
235,469,54,100,561,442,163,459
210,444,54,99,553,424,149,425
200,431,84,120,574,466,183,535
197,425,87,126,614,469,176,538
174,375,86,109,485,404,166,482
159,352,86,101,423,364,173,508
161,373,89,113,501,374,189,534
143,291,56,87,424,261,159,380
145,309,61,77,345,308,144,424
194,355,70,77,367,314,161,469
209,408,76,77,361,293,207,487
212,392,71,59,244,275,202,473
241,375,72,50,225,324,220,483
252,365,71,47,343,321,227,470
233,328,60,54,380,329,230,426
244,271,53,56,388,364,211,401
284,349,64,62,395,370,217,385
287,342,62,68,420,351,205,394
280,327,57,72,369,364,197,414
312,342,60,71,319,360,195,438
295,324,58,68,341,347,165,430
254,320,46,60,345,362,169,467
223,346,46,59,311,402,161,454
252,365,71,47,343,321,227,470
233,328,60,54,380,329,230,426
244,271,53,56,388,364,211,401
284,349,64,62,395,370,217,385
287,342,62,68,420,351,205,394
280,327,57,72,369,364,197,414
312,342,60,71,319,360,195,438
295,324,58,68,341,347,165,430
254,320,46,60,345,362,169,467
223,346,46,59,311,402,161,454
261,356,46,53,272,361,174,420
235,401,48,56,296,363,174,434
245,407,48,57,252,371,170,409
246,455,62,80,419,359,152,393
261,435,61,84,446,362,228,414
242,441,66,88,501,428,229,422
228,391,64,86,497,418,220,398
240,429,79,99,529,389,236,395
230,333,69,119,519,409,233,399
233,328,69,120,513,369,173,402
228,341,63,120,458,312,177,379
243,346,67,121,463,319,199,380
219,324,52,123,506,388,180,412
258,433,66,93,402,376,192,423
252,441,66,91,389,363,183,440
252,502,68,88,447,361,204,455
239,487,64,88,463,404,196,457
243,467,58,73,397,370,197,422
205,342,41,76,414,367,195,418
193,375,49,78,409,387,197,408
228,341,63,120,458,312,177,379
243,346,67,121,463,319,199,380
219,324,52,123,506,388,180,412
258,433,66,93,402,376,192,423
252,441,66,91,389,363,183,440
252,502,68,88,447,361,204,455
239,487,64,88,463,404,196,457
243,467,58,73,397,370,197,422
205,342,41,76,414,367,195,418
193,375,49,78,409,387,197,408
181,320,49,93,444,387,166,442
175,343,48,94,410,423,181,476
190,348,50,93,389,452,191,471
196,352,52,87,398,449,189,451
222,333,50,88,419,458,239,451
256,302,47,74,333,545,233,399
257,316,48,70,329,490,204,375
264,375,50,75,361,434,214,406
257,376,47,71,305,435,204,406
229,423,59,92,381,448,161,372
205,446,63,91,391,317,176,368
201,437,67,92,388,311,183,359
184,403,67,87,354,357,178,368
196,435,71,90,383,359,198,381
188,379,57,59,286,322,181,387
165,354,60,60,309,320,212,434
163,336,54,59,314,349,235,420
181,335,54,55,329,311,225,391
176,371,49,51,306,346,223,408
188,368,51,60,308,373,239,416
205,446,63,91,391,317,176,368
201,437,67,92,388,311,183,359
184,403,67,87,354,357,178,368
196,435,71,90,383,359,198,381
188,379,57,59,286,322,181,387
165,354,60,60,309,320,212,434
163,336,54,59,314,349,235,420
181,335,54,55,329,311,225,391
176,371,49,51,306,346,223,408
188,368,51,60,308,373,239,416
202,394,46,58,263,381,201,400
212,402,47,58,264,389,196,441
193,400,47,64,309,416,195,443
187,321,48,75,368,397,194,412
189,321,46,66,362,354,172,399
190,324,46,72,397,348,170,386
179,312,46,72,399,324,134,314
173,305,45,71,360,323,141,380
201,327,49,63,332,350,123,399
203,314,50,67,350,424,147,467
198,271,48,80,384,457,162,511
198,282,52,89,394,460,163,527
259,266,53,88,408,445,154,516
249,240,50,86,378,392,155,495
250,266,54,83,347,327,137,449
265,251,56,68,239,364,142,413
264,231,50,60,240,375,163,441
288,264,51,65,259,366,171,478
287,263,52,72,334,432,171,477
294,330,61,75,390,427,191,466
198,271,48,80,384,457,162,511
198,282,52,89,394,460,163,527
259,266,53,88,408,445,154,516
249,240,50,86,378,392,155,495
250,266,54,83,347,327,137,449
265,251,56,68,239,364,142,413
264,231,50,60,240,375,163,441
288,264,51,65,259,366,171,478
287,263,52,72,334,432,171,477
294,330,61,75,390,427,191,466
282,318,58,73,402,356,179,452
292,334,59,69,384,384,166,455
210,325,56,63,359,404,198,411
201,328,58,57,296,391,196,445
172,240,45,56,244,485,176,421
156,232,47,53,231,485,172,410
172,241,50,60,264,455,197,361
165,205,50,57,245,435,151,300
175,225,49,58,234,401,150,234
186,271,57,59,209,275,178,374
194,287,56,68,270,263,171,375
232,335,74,76,397,302,230,463
236,339,72,78,433,303,233,482
224,325,71,77,434,287,237,492
225,295,67,80,446,342,223,456
230,303,68,74,447,354,247,474
156,225,49,58,325,296,161,384
167,260,53,61,279,292,162,385
190,292,51,60,276,346,154,383
193,292,50,62,297,307,170,363
194,287,56,68,270,263,171,375
232,335,74,76,397,302,230,463
236,339,72,78,433,303,233,482
224,325,71,77,434,287,237,492
225,295,67,80,446,342,223,456
230,303,68,74,447,354,247,474
156,225,49,58,325,296,161,384
167,260,53,61,279,292,162,385
190,292,51,60,276,346,154,383
193,292,50,62,297,307,170,363
179,346,52,64,301,298,139,364
236,374,52,67,300,339,160,385
259,353,52,75,329,370,198,363
251,344,56,80,355,347,211,394
239,344,55,75,345,400,210,380
266,338,53,72,290,393,216,382
220,317,55,74,335,366,202,374
220,318,54,61,307,416,178,429
222,402,65,55,288,395,189,440
238,412,66,65,314,322,169,466
228,367,68,69,320,405,178,456
229,370,69,68,256,409,194,513
204,395,74,69,248,345,179,509
202,301,69,71,249,459,166,490
237,301,69,67,195,470,188,487
232,297,70,68,225,413,190,514
246,327,68,83,282,460,189,475
248,318,66,86,315,481,213,447
274,319,58,88,304,380,222,462
236,339,59,85,291,394,225,431
228,367,68,69,320,405,178,456
229,370,69,68,256,409,194,513
204,395,74,69,248,345,179,509
202,301,69,71,249,459,166,490
237,301,69,67,195,470,188,487
232,297,70,68,225,413,190,514
246,327,68,83,282,460,189,475
248,318,66,86,315,481,213,447
274,319,58,88,304,380,222,462
236,339,59,85,291,394,225,431
249,367,59,84,257,397,212,413
243,355,63,77,238,364,224,401
228,353,61,77,211,319,207,413
204,356,66,76,212,334,196,433
214,353,65,83,257,393,178,437
207,369,64,87,308,406,179,427
199,391,60,79,336,400,171,474
207,403,65,85,358,451,203,498
216,397,60,87,357,455,198,466
210,386,57,82,364,397,207,472
205,340,59,87,361,405,210,453
234,358,60,87,339,396,223,443
245,347,54,79,314,331,189,406
244,352,54,79,322,302,195,383
281,339,58,92,371,313,198,411
286,366,63,85,341,322,191,435
264,321,58,82,304,303,160,408
261,316,60,82,309,301,159,422
286,335,63,77,325,352,154,428
243,340,58,66,233,373,160,383
205,340,59,87,361,405,210,453
234,358,60,87,339,396,223,443
245,347,54,79,314,331,189,406
244,352,54,79,322,302,195,383
281,339,58,92,371,313,198,411
286,366,63,85,341,322,191,435
264,321,58,82,304,303,160,408
261,316,60,82,309,301,159,422
286,335,63,77,325,352,154,428
243,340,58,66,233,373,160,383
224,312,47,63,228,329,161,412
219,277,50,66,244,363,162,425
223,319,67,71,236,418,214,491
186,291,67,86,261,412,216,561
213,319,75,81,257,399,199,562
229,324,77,82,246,414,211,567
233,326,74,103,248,409,210,540
213,264,55,178,445,359,157,445
192,247,68,256,572,324,147,326
157,184,69,382,754,349,138,293
132,152,98,469,1020,479,138,182
118,139,114,495,1125,489,132,147
112,117,124,520,1194,530,128,122
102,107,121,535,1298,607,128,111
89,89,120,473,1291,633,131,115
85,110,116,477,1192,534,104,91
81,121,109,500,1165,515,107,76
103,210,109,471,1140,530,117,73
118,279,120,441,1034,454,117,85
137,312,121,425,988,359,108,96
84,113,36,53,369,96,61,168
82,107,38,46,310,68,76,222
239,198,36,45,269,63,107,445
407,260,50,46,223,71,147,510
528,363,62,60,172,79,188,617
591,436,80,68,153,112,256,676
678,523,85,70,119,230,272,771
709,511,96,74,107,342,309,742
678,507,99,85,192,399,349,906
617,518,103,83,260,484,394,983
607,636,133,86,262,491,529,1076
617,643,137,89,268,501,588,1069
609,712,145,101,329,513,587,1088
576,732,151,102,331,521,622,1061
553,709,151,103,336,500,670,978
556,602,126,106,356,528,594,915
458,593,124,112,390,570,537,936
393,531,114,102,368,588,589,940
377,495,103,98,407,648,539,830
400,507,97,101,405,660,515,871
399,494,89,95,395,712,537,862
436,493,84,95,439,698,571,834
423,498,78,96,433,651,509,818
466,615,86,91,367,570,512,828
447,604,86,103,404,529,456,832
390,660,101,112,423,455,365,796
356,622,111,109,357,420,307,736
352,619,113,114,428,424,321,715
297,568,107,114,440,461,334,753
303,563,116,106,408,476,366,701
399,494,89,95,395,712,537,862
436,493,84,95,439,698,571,834
423,498,78,96,433,651,509,818
466,615,86,91,367,570,512,828
447,604,86,103,404,529,456,832
390,660,101,112,423,455,365,796
356,622,111,109,357,420,307,736
352,619,113,114,428,424,321,715
297,568,107,114,440,461,334,753
303,563,116,106,408,476,366,701
323,517,107,91,393,472,371,682
320,520,107,97,455,461,375,732
333,507,108,90,385,514,395,758
315,449,107,88,372,470,365,715
305,428,95,79,331,449,340,759
299,431,88,82,334,433,338,749
280,476,76,71,260,456,334,728
279,478,65,69,269,425,306,640
280,463,65,74,318,416,316,625
299,463,72,77,333,459,295,590
283,420,72,78,320,490,286,561
308,383,74,94,292,525,286,577
295,383,72,96,261,505,267,606
313,400,81,91,188,513,278,600
303,441,70,88,146,504,251,538
311,449,68,85,137,502,249,545
282,407,64,62,116,442,259,489
278,411,70,58,126,513,263,488
277,406,56,56,144,532,244,455
304,347,60,52,162,536,275,574
283,420,72,78,320,490,286,561
308,383,74,94,292,525,286,577
295,383,72,96,261,505,267,606
313,400,81,91,188,513,278,600
303,441,70,88,146,504,251,538
311,449,68,85,137,502,249,545
282,407,64,62,116,442,259,489
278,411,70,58,126,513,263,488
277,406,56,56,144,532,244,455
304,347,60,52,162,536,275,574
334,357,73,47,171,543,273,607
332,368,74,45,213,561,291,652
342,330,72,39,211,560,287,686
335,338,70,41,212,619,284,711
317,404,71,42,196,596,245,588
283,372,56,47,190,611,265,606
283,364,59,54,160,581,254,594
315,435,61,55,156,514,254,564
319,430,66,53,166,419,300,586
314,417,66,53,211,453,303,599
320,429,77,59,256,391,356,599
318,447,76,55,251,399,344,572
271,413,70,54,261,423,334,572
283,408,67,55,291,440,293,563
270,362,66,60,332,440,297,584
304,382,67,62,300,469,227,520
311,363,70,62,298,476,208,487
331,333,71,62,293,437,244,480
313,334,76,72,320,445,234,459
324,475,85,77,315,402,227,463
320,429,77,59,256,391,356,599
318,447,76,55,251,399,344,572
271,413,70,54,261,423,334,572
283,408,67,55,291,440,293,563
270,362,66,60,332,440,297,584
304,382,67,62,300,469,227,520
311,363,70,62,298,476,208,487
331,333,71,62,293,437,244,480
313,334,76,72,320,445,234,459
324,475,85,77,315,402,227,463
262,452,77,72,319,365,220,567
252,478,76,72,325,365,222,583
235,482,78,73,325,364,186,579
240,463,74,72,327,333,193,565
233,319,64,65,300,352,215,616
286,329,69,70,307,356,233,561
336,353,73,87,353,369,242,592
351,352,77,97,411,379,270,615
348,358,75,94,429,387,265,610
369,349,73,93,410,410,253,593
403,382,67,90,425,413,231,570
360,315,58,76,390,383,224,527
386,380,52,64,329,359,223,531
386,394,54,65,230,348,218,512
382,423,63,68,233,395,286,570
334,385,68,64,199,419,280,584
329,375,67,60,179,403,278,579
349,392,88,88,244,466,375,565
348,443,96,121,470,506,401,622
329,413,92,127,504,420,352,508
403,382,67,90,425,413,231,570
360,315,58,76,390,383,224,527
386,380,52,64,329,359,223,531
386,394,54,65,230,348,218,512
382,423,63,68,233,395,286,570
334,385,68,64,199,419,280,584
329,375,67,60,179,403,278,579
349,392,88,88,244,466,375,565
348,443,96,121,470,506,401,622
329,413,92,127,504,420,352,508
297,413,90,127,496,383,357,458
322,446,94,138,524,417,355,467
249,364,72,126,504,363,229,466
248,353,65,92,308,343,193,431
249,359,64,81,258,367,231,442
258,365,63,83,267,447,225,462
226,354,61,70,224,439,257,476
223,402,66,67,215,441,256,427
251,352,61,71,232,452,266,418
257,350,63,73,213,516,241,396
251,311,56,70,203,444,237,398
270,385,57,66,253,439,250,433
277,381,54,60,257,456,240,439
242,387,50,57,253,416,252,419
234,424,62,53,262,370,273,422
244,439,64,56,265,385,282,433
225,382,64,54,203,375,252,394
193,377,65,53,178,336,248,402
193,381,68,55,164,405,221,440
213,384,61,63,188,394,203,554
251,311,56,70,203,444,237,398
270,385,57,66,253,439,250,433
277,381,54,60,257,456,240,439
242,387,50,57,253,416,252,419
234,424,62,53,262,370,273,422
244,439,64,56,265,385,282,433
225,382,64,54,203,375,252,394
193,377,65,53,178,336,248,402
193,381,68,55,164,405,221,440
213,384,61,63,188,394,203,554
217,435,63,63,190,394,199,602
224,434,66,64,191,400,184,623
251,415,68,65,195,392,193,664
255,401,70,65,185,328,183,639
232,378,71,66,351,367,170,556
222,300,68,71,369,358,174,528
221,301,67,70,373,363,173,482
198,312,64,70,392,409,177,479
216,300,60,71,405,430,174,475
259,295,56,74,253,366,162,509
251,324,65,69,234,409,179,496
242,329,62,77,236,400,184,500
259,319,58,76,205,360,179,466
237,339,57,75,204,394,183,472
201,353,60,87,265,429,179,440
212,370,50,88,272,389,183,430
254,396,55,85,307,417,200,446
227,388,57,92,337,465,188,408
232,392,63,91,322,408,215,380
223,371,55,67,270,376,222,419
251,324,65,69,234,409,179,496
242,329,62,77,236,400,184,500
259,319,58,76,205,360,179,466
237,339,57,75,204,394,183,472
201,353,60,87,265,429,179,440
212,370,50,88,272,389,183,430
254,396,55,85,307,417,200,446
227,388,57,92,337,465,188,408
232,392,63,91,322,408,215,380
223,371,55,67,270,376,222,419
248,341,60,67,253,427,275,502
213,298,63,62,260,409,262,530
218,304,63,57,245,422,267,537
259,280,58,58,246,444,271,585
304,287,62,57,244,475,273,534
285,285,57,57,244,446,216,566
288,288,50,60,176,440,219,520
296,260,58,57,135,382,217,518
270,307,63,55,183,418,205,479
242,348,60,56,214,459,216,507
249,363,60,54,222,443,217,382
239,350,62,55,223,488,211,478
239,375,54,55,223,515,209,504
227,344,48,67,210,496,208,535
200,319,49,73,191,449,194,518
215,372,53,74,194,439,176,503
237,417,52,74,229,379,181,438
241,429,54,84,325,354,203,442
252,429,54,79,335,363,208,434
256,464,62,81,348,354,228,495
249,363,60,54,222,443,217,382
239,350,62,55,223,488,211,478
239,375,54,55,223,515,209,504
227,344,48,67,210,496,208,535
200,319,49,73,191,449,194,518
215,372,53,74,194,439,176,503
237,417,52,74,229,379,181,438
241,429,54,84,325,354,203,442
252,429,54,79,335,363,208,434
256,464,62,81,348,354,228,495
242,407,61,81,364,359,234,502
239,361,58,79,366,386,254,507
237,339,61,64,288,394,244,500
217,341,61,57,291,444,233,510
223,326,63,53,273,424,220,448
228,339,61,57,248,424,209,427
234,348,63,57,213,405,198,434
224,354,57,60,213,377,199,482
230,369,58,62,166,274,191,437
245,337,52,63,154,347,224,444
275,411,60,61,165,368,230,501
269,447,65,78,306,378,222,523
269,437,67,80,327,387,209,443
267,428,69,80,330,428,245,479
277,458,76,95,391,370,205,487
226,383,73,103,398,352,197,425
201,339,67,94,312,338,198,385
192,328,67,115,411,349,212,395
249,361,69,119,425,289,178,390
217,317,56,109,398,348,182,372
275,411,60,61,165,368,230,501
269,447,65,78,306,378,222,523
269,437,67,80,327,387,209,443
267,428,69,80,330,428,245,479
277,458,76,95,391,370,205,487
226,383,73,103,398,352,197,425
201,339,67,94,312,338,198,385
192,328,67,115,411,349,212,395
249,361,69,119,425,289,178,390
217,317,56,109,398,348,182,372
263,334,51,100,390,373,193,375
309,360,58,102,402,390,201,406
320,400,58,77,278,405,197,423
303,403,58,78,271,402,200,413
324,439,64,75,241,386,212,413
295,434,64,77,230,402,209,433
250,429,57,71,192,429,208,510
289,410,64,74,192,428,209,487
273,360,66,69,199,489,195,490
250,306,63,68,228,493,174,487
246,292,66,64,243,481,174,482
279,289,72,78,274,492,166,383
240,268,70,74,283,477,186,469
250,267,63,74,261,428,184,487
293,263,66,68,250,431,195,529
293,288,64,71,234,409,193,540
263,252,58,54,239,340,197,546
267,255,55,52,229,403,189,531
251,263,57,51,250,404,200,484
205,317,54,53,218,375,189,486
246,292,66,64,243,481,174,482
279,289,72,78,274,492,166,383
240,268,70,74,283,477,186,469
250,267,63,74,261,428,184,487
293,263,66,68,250,431,195,529
293,288,64,71,234,409,193,540
263,252,58,54,239,340,197,546
267,255,55,52,229,403,189,531
251,263,57,51,250,404,200,484
205,317,54,53,218,375,189,486
233,303,53,50,241,404,190,489
253,310,55,60,272,437,181,469
256,318,51,61,271,396,179,416
253,322,50,62,268,478,178,436
260,311,49,64,275,481,197,407
248,310,55,65,279,469,226,432
227,300,59,58,220,500,227,428
209,289,60,56,278,482,230,475
241,296,66,52,262,445,259,533
226,259,65,50,256,448,245,510
227,258,59,64,244,432,217,474
264,304,52,64,240,359,224,468
286,343,54,64,174,365,224,479
258,331,47,64,182,375,205,430
256,334,45,66,181,381,208,452
280,344,53,52,191,403,212,491
259,311,58,55,228,472,209,512
253,299,59,55,216,477,213,488
250,295,60,56,216,464,187,464
250,326,62,54,262,514,194,453
227,258,59,64,244,432,217,474
264,304,52,64,240,359,224,468
286,343,54,64,174,365,224,479
258,331,47,64,182,375,205,430
256,334,45,66,181,381,208,452
280,344,53,52,191,403,212,491
259,311,58,55,228,472,209,512
253,299,59,55,216,477,213,488
250,295,60,56,216,464,187,464
250,326,62,54,262,514,194,453
220,357,55,54,252,520,196,472
210,372,57,52,226,490,192,467
216,348,52,56,223,501,190,480
244,361,51,56,229,464,199,534
248,342,52,57,217,455,190,536
236,314,56,64,213,429,196,515
298,353,53,62,211,437,201,509
310,370,55,57,214,434,188,493
313,357,60,62,221,430,187,459
317,343,55,61,184,386,194,471
341,339,51,57,241,422,175,452
292,256,47,58,245,378,164,447
270,275,57,70,250,363,158,469
247,282,53,66,252,402,143,433
232,272,55,67,244,419,142,400
187,246,54,74,236,418,145,421
172,245,54,84,239,438,143,414
209,303,42,85,321,425,191,401
216,297,39,84,312,381,195,409
225,328,43,82,315,334,183,427
341,339,51,57,241,422,175,452
292,256,47,58,245,378,164,447
270,275,57,70,250,363,158,469
247,282,53,66,252,402,143,433
232,272,55,67,244,419,142,400
187,246,54,74,236,418,145,421
172,245,54,84,239,438,143,414
209,303,42,85,321,425,191,401
216,297,39,84,312,381,195,409
225,328,43,82,315,334,183,427
237,343,44,73,271,343,180,368
297,405,57,65,285,405,215,384
279,337,55,61,236,410,182,342
282,331,57,65,275,436,194,349
277,307,57,72,331,433,202,375
263,281,57,82,377,382,199,381
189,177,47,135,515,306,158,335
147,155,111,335,674,330,137,298
107,146,158,423,878,330,123,258
100,116,187,485,925,346,115,151
141,153,194,568,1097,382,109,97
153,164,202,586,1145,452,116,89
152,162,180,555,1258,501,114,83
190,208,155,520,1261,473,106,146
196,221,119,470,1252,454,99,159
173,199,111,412,1139,427,99,171
166,205,99,396,1132,350,85,182
187,238,92,335,987,225,74,216
155,201,66,332,957,228,69,184
144,178,62,331,1044,247,69,173
141,153,194,568,1097,382,109,97
153,164,202,586,1145,452,116,89
152,162,180,555,1258,501,114,83
190,208,155,520,1261,473,106,146
196,221,119,470,1252,454,99,159
173,199,111,412,1139,427,99,171
166,205,99,396,1132,350,85,182
187,238,92,335,987,225,74,216
155,201,66,332,957,228,69,184
144,178,62,331,1044,247,69,173
139,188,53,282,1075,247,66,162
131,190,46,250,985,223,58,148
124,236,50,231,943,225,65,94
118,246,51,167,809,211,74,82
113,249,51,176,770,183,64,73
108,239,51,173,782,187,65,66
115,230,50,173,851,209,65,62
97,155,44,167,871,215,64,66
89,143,45,173,859,213,51,59
104,146,45,143,772,202,50,59
106,146,45,132,706,184,48,55
108,141,44,133,720,178,50,51
106,147,46,124,659,159,45,40
109,145,45,123,683,183,48,37
98,143,46,129,670,185,52,42
112,157,49,143,686,204,53,43
104,175,48,145,663,192,51,48
89,154,47,142,688,191,49,70
89,156,49,133,696,169,45,77
85,157,47,134,723,185,48,77
355,484,99,97,313,597,530,994
304,499,105,106,304,501,530,915
310,512,106,101,270,515,499,910
387,534,98,93,234,513,507,819
401,544,105,83,185,492,509,782
437,498,107,81,147,533,560,779
434,416,96,71,141,552,535,781
435,428,98,74,114,532,546,757
386,421,99,81,120,537,521,748
380,369,91,85,124,552,514,738
345,356,85,86,189,468,525,803
354,332,94,88,199,425,521,856
391,301,86,89,210,485,504,898
378,374,86,89,210,459,488,946
371,418,89,86,207,478,498,960
382,423,91,87,148,478,445,950
366,440,84,81,146,498,421,925
326,450,85,87,146,481,425,881
307,385,83,85,181,469,445,872
330,351,81,89,196,433,398,849
293,353,79,86,272,467,370,802
293,331,76,104,280,446,412,777
315,358,82,107,296,430,415,799
325,340,84,105,316,489,385,759
293,371,85,103,304,580,390,731
294,392,86,107,267,535,383,751
332,438,78,88,257,531,343,755
322,410,73,76,240,549,308,704
309,420,67,75,192,529,289,689
317,397,62,71,188,405,263,763
293,353,79,86,272,467,370,802
293,331,76,104,280,446,412,777
315,358,82,107,296,430,415,799
325,340,84,105,316,489,385,759
293,371,85,103,304,580,390,731
294,392,86,107,267,535,383,751
332,438,78,88,257,531,343,755
322,410,73,76,240,549,308,704
309,420,67,75,192,529,289,689
317,397,62,71,188,405,263,763
342,430,58,62,150,479,273,754
309,429,69,60,137,468,282,700
276,427,64,56,125,425,284,695
297,438,67,57,121,471,276,698
330,441,68,53,128,498,303,615
297,419,70,52,116,483,299,564
285,394,59,50,120,503,330,611
336,399,57,49,108,481,334,629
311,391,53,48,100,453,364,656
277,393,52,51,94,447,369,655
277,375,48,56,99,474,387,622
346,366,48,55,99,498,334,602
321,358,52,57,99,508,315,569
329,352,52,58,96,481,322,565
316,355,50,56,92,469,292,541
321,389,53,51,89,392,249,565
271,433,54,53,95,355,258,572
276,453,56,52,100,373,251,557
273,477,59,46,103,338,226,477
269,476,59,48,104,356,227,521
277,375,48,56,99,474,387,622
346,366,48,55,99,498,334,602
321,358,52,57,99,508,315,569
329,352,52,58,96,481,322,565
316,355,50,56,92,469,292,541
321,389,53,51,89,392,249,565
271,433,54,53,95,355,258,572
276,453,56,52,100,373,251,557
273,477,59,46,103,338,226,477
269,476,59,48,104,356,227,521
295,446,70,62,120,364,267,566
287,391,71,67,115,370,255,599
259,365,67,65,116,369,256,586
273,317,63,67,113,359,243,577
277,297,61,66,126,406,255,555
237,286,45,55,107,393,229,490
243,273,41,49,106,441,245,449
280,389,54,53,102,446,251,486
254,379,54,46,105,443,235,489
261,371,57,46,86,378,204,512
267,381,58,47,91,411,210,501
243,371,59,45,95,332,196,468
225,280,49,46,94,304,189,477
233,307,50,49,96,336,202,524
221,310,46,50,110,341,219,528
225,332,49,52,114,341,208,523
248,356,48,47,112,397,197,535
235,318,46,46,110,410,192,491
267,315,52,46,105,444,209,514
268,332,54,45,95,445,204,507
267,381,58,47,91,411,210,501
243,371,59,45,95,332,196,468
225,280,49,46,94,304,189,477
233,307,50,49,96,336,202,524
221,310,46,50,110,341,219,528
225,332,49,52,114,341,208,523
248,356,48,47,112,397,197,535
235,318,46,46,110,410,192,491
267,315,52,46,105,444,209,514
268,332,54,45,95,445,204,507
284,366,58,40,89,418,215,578
278,397,65,43,92,435,234,562
272,472,74,44,96,460,246,580
295,520,80,49,128,433,228,596
292,507,81,55,143,457,215,585
274,467,79,55,141,458,195,578
287,460,84,66,220,536,231,641
277,375,76,65,231,503,217,625
199,277,63,58,214,484,202,528
228,336,64,55,205,482,216,596
231,339,66,64,218,521,220,563
198,294,52,54,133,363,160,477
223,334,57,54,116,395,205,517
259,352,60,55,117,417,231,553
238,288,58,56,127,405,239,452
237,288,55,46,110,359,238,448
258,304,53,45,107,363,243,461
293,314,52,45,101,326,210,428
278,297,49,46,99,349,194,409
272,339,51,44,78,358,191,400
231,339,66,64,218,521,220,563
198,294,52,54,133,363,160,477
223,334,57,54,116,395,205,517
259,352,60,55,117,417,231,553
238,288,58,56,127,405,239,452
237,288,55,46,110,359,238,448
258,304,53,45,107,363,243,461
293,314,52,45,101,326,210,428
278,297,49,46,99,349,194,409
272,339,51,44,78,358,191,400
261,330,47,43,84,400,222,402
239,329,50,42,81,435,219,436
211,420,52,44,83,440,213,445
194,428,52,43,80,406,205,427
247,404,49,43,87,421,215,499
259,416,56,48,87,462,200,474
262,406,56,46,89,442,203,433
244,310,50,41,90,457,215,505
253,312,50,40,99,488,216,515
194,300,47,40,101,443,183,451
208,363,61,39,94,403,210,508
214,360,60,38,113,409,198,514
192,318,60,40,113,377,178,406
242,361,67,46,115,386,234,460
245,407,71,45,119,435,253,506
233,354,52,43,118,392,213,454
233,383,56,47,104,508,247,454
234,386,53,46,99,504,247,463
