emg0,emg1,emg2,emg3,emg4,emg5,emg6,emg7
19,26,47,204,197,85,34,18
17,23,47,204,168,88,30,18
16,21,36,200,177,81,29,16
18,21,43,198,189,77,31,17
17,20,45,213,188,86,32,18
16,19,47,203,208,80,31,16
15,19,45,172,207,75,29,16
17,20,50,171,209,78,30,16
19,22,44,143,225,81,30,19
20,22,43,130,223,66,29,22
22,23,46,157,196,68,30,22
22,23,50,164,190,63,30,21
21,21,50,166,171,61,27,23
18,20,50,168,156,55,26,20
18,19,53,183,152,75,26,19
17,19,51,202,159,73,25,20
19,23,61,236,223,94,28,24
23,32,78,339,309,111,33,26
31,53,141,577,364,179,40,35
33,55,160,673,497,222,44,36
40,68,187,790,573,252,52,46
91,140,299,968,808,289,101,91
101,147,313,1024,964,297,116,107
101,146,324,1054,1110,337,120,108
113,170,374,1089,1232,337,128,115
117,178,393,1119,1391,356,128,116
91,135,319,1013,1319,374,99,93
88,142,341,1018,1276,437,108,86
96,157,364,1013,1228,437,130,95
91,148,339,1057,1213,438,146,97
40,68,187,790,573,252,52,46
91,140,299,968,808,289,101,91
101,147,313,1024,964,297,116,107
101,146,324,1054,1110,337,120,108
113,170,374,1089,1232,337,128,115
117,178,393,1119,1391,356,128,116
91,135,319,1013,1319,374,99,93
88,142,341,1018,1276,437,108,86
96,157,364,1013,1228,437,130,95
91,148,339,1057,1213,438,146,97
88,140,316,1101,1117,439,156,99
87,144,330,1170,1111,416,157,100
99,153,333,1149,1120,352,150,106
100,148,301,1085,1131,333,156,108
92,135,270,979,983,313,136,99
91,131,257,893,897,315,130,99
90,131,259,819,949,310,132,96
80,127,278,927,918,327,132,88
75,121,270,926,879,301,109,77
82,133,312,1096,942,346,115,86
84,137,323,1040,917,318,113,84
82,133,311,1048,846,311,106,80
74,118,262,947,783,312,95,75
73,115,254,990,764,297,78,72
68,104,212,894,741,250,75,63
64,100,212,920,829,283,62,57
65,100,215,878,812,289,64,59
69,103,222,850,833,280,66,59
69,108,250,843,817,273,69,58
68,106,244,831,782,256,68,60
84,137,323,1040,917,318,113,84
82,133,311,1048,846,311,106,80
74,118,262,947,783,312,95,75
73,115,254,990,764,297,78,72
68,104,212,894,741,250,75,63
64,100,212,920,829,283,62,57
65,100,215,878,812,289,64,59
69,103,222,850,833,280,66,59
69,108,250,843,817,273,69,58
68,106,244,831,782,256,68,60
65,101,230,802,739,306,69,60
64,102,238,825,852,303,68,59
58,93,221,853,822,298,64,54
51,76,172,804,786,310,63,51
48,72,162,753,798,334,53,45
48,72,157,754,780,289,53,44
42,62,137,844,653,277,51,41
41,62,137,861,644,256,47,39
45,67,142,854,720,255,49,42
46,62,141,809,710,249,47,42
46,61,137,813,671,195,52,41
47,61,127,734,645,213,50,39
52,64,133,685,629,213,54,46
49,61,126,645,498,220,52,42
54,78,152,704,567,214,59,49
54,80,160,725,549,214,54,49
58,85,169,701,662,236,57,52
51,79,160,682,703,248,53,47
50,79,161,676,728,258,50,45
43,64,149,624,638,238,42,35
46,61,137,813,671,195,52,41
47,61,127,734,645,213,50,39
52,64,133,685,629,213,54,46
49,61,126,645,498,220,52,42
54,78,152,704,567,214,59,49
54,80,160,725,549,214,54,49
58,85,169,701,662,236,57,52
51,79,160,682,703,248,53,47
50,79,161,676,728,258,50,45
43,64,149,624,638,238,42,35
44,64,146,688,641,237,46,40
39,55,134,661,520,203,44,39
42,57,136,686,510,232,49,42
45,58,141,710,532,213,52,45
42,57,134,711,527,244,50,45
41,57,140,639,561,257,45,41
41,58,139,637,630,285,47,40
39,58,137,676,656,280,43,38
37,55,126,687,636,289,47,39
41,59,122,769,698,293,55,41
39,57,107,754,669,283,56,42
38,57,114,794,604,274,56,44
36,56,115,792,564,295,56,43
35,57,134,857,637,294,51,40
42,72,160,750,613,282,46,44
43,74,167,779,626,312,52,43
45,77,174,734,654,299,51,43
47,81,181,707,695,262,50,43
49,81,174,624,653,245,54,46
39,65,144,647,595,252,57,40
39,57,107,754,669,283,56,42
38,57,114,794,604,274,56,44
36,56,115,792,564,295,56,43
35,57,134,857,637,294,51,40
42,72,160,750,613,282,46,44
43,74,167,779,626,312,52,43
45,77,174,734,654,299,51,43
47,81,181,707,695,262,50,43
49,81,174,624,653,245,54,46
39,65,144,647,595,252,57,40
40,64,154,644,608,252,54,40
39,61,148,640,631,251,53,38
38,58,141,589,623,248,52,38
41,65,150,688,642,285,49,36
46,73,161,752,656,277,45,43
47,77,154,727,646,264,47,48
48,78,157,803,607,286,48,50
47,76,153,812,576,281,50,51
44,69,140,720,531,277,48,52
41,65,138,670,559,265,50,49
39,62,142,654,557,256,46,43
37,58,129,568,584,230,44,40
39,63,137,567,589,286,42,40
41,61,135,530,603,304,44,39
38,57,122,556,642,303,43,36
36,52,104,590,642,301,45,35
40,55,119,640,625,313,48,37
36,51,119,662,716,292,47,34
36,52,132,719,710,264,48,34
38,57,141,700,693,305,53,36
39,62,142,654,557,256,46,43
37,58,129,568,584,230,44,40
39,63,137,567,589,286,42,40
41,61,135,530,603,304,44,39
38,57,122,556,642,303,43,36
36,52,104,590,642,301,45,35
40,55,119,640,625,313,48,37
36,51,119,662,716,292,47,34
36,52,132,719,710,264,48,34
38,57,141,700,693,305,53,36
41,65,158,685,792,308,54,40
38,61,145,628,768,304,52,39
37,58,139,629,713,284,56,39
37,58,123,584,679,275,56,44
38,55,118,565,638,251,51,45
39,48,104,540,479,264,48,43
39,49,107,547,534,249,46,42
42,51,98,529,486,246,41,43
44,55,112,538,511,274,41,41
45,59,122,565,551,270,41,42
45,64,126,604,587,250,52,44
45,62,127,650,545,261,52,43
43,63,131,681,572,270,53,44
43,60,119,659,562,263,52,43
43,57,108,657,541,255,54,42
43,56,112,687,554,251,50,40
46,60,126,644,597,267,55,42
45,59,130,605,568,311,56,41
45,60,140,730,629,279,57,44
40,54,144,796,641,274,55,41
45,64,126,604,587,250,52,44
45,62,127,650,545,261,52,43
43,63,131,681,572,270,53,44
43,60,119,659,562,263,52,43
43,57,108,657,541,255,54,42
43,56,112,687,554,251,50,40
46,60,126,644,597,267,55,42
45,59,130,605,568,311,56,41
45,60,140,730,629,279,57,44
40,54,144,796,641,274,55,41
40,59,149,821,668,316,49,38
43,64,144,806,745,303,48,45
48,74,153,893,742,240,50,50
50,78,168,816,711,237,50,50
51,83,164,822,739,255,52,49
51,82,156,777,719,243,57,54
46,79,150,823,626,229,55,50
43,71,140,743,620,255,55,49
43,68,121,786,611,263,57,47
48,75,136,713,602,247,54,52
48,72,141,681,567,209,50,49
52,77,147,635,550,218,50,49
51,75,149,631,540,191,45,44
51,78,155,647,601,285,41,44
50,79,164,649,574,305,52,43
53,87,173,696,581,315,63,49
51,87,179,699,609,327,62,49
51,87,177,721,643,329,62,49
48,81,169,726,603,258,61,46
47,75,154,686,638,233,52,47
48,72,141,681,567,209,50,49
52,77,147,635,550,218,50,49
51,75,149,631,540,191,45,44
51,78,155,647,601,285,41,44
50,79,164,649,574,305,52,43
53,87,173,696,581,315,63,49
51,87,179,699,609,327,62,49
51,87,177,721,643,329,62,49
48,81,169,726,603,258,61,46
47,75,154,686,638,233,52,47
42,62,134,645,667,208,38,40
40,55,127,628,617,183,38,39
37,55,131,642,596,258,38,37
36,62,143,569,574,261,49,40
32,59,134,566,532,274,49,37
34,60,126,551,512,282,52,40
35,63,132,652,581,319,52,42
40,65,132,571,562,286,57,45
43,64,144,588,585,275,51,46
44,65,156,597,622,272,50,47
43,68,161,601,622,292,50,46
41,63,152,532,592,280,50,42
39,59,148,596,636,286,44,39
35,53,118,547,667,301,50,35
36,59,130,626,622,296,53,36
35,54,136,638,610,282,54,32
40,64,159,627,594,285,55,39
43,69,162,616,591,255,61,42
44,71,164,624,547,244,58,46
42,68,163,555,626,263,57,46
43,68,161,601,622,292,50,46
41,63,152,532,592,280,50,42
39,59,148,596,636,286,44,39
35,53,118,547,667,301,50,35
36,59,130,626,622,296,53,36
35,54,136,638,610,282,54,32
40,64,159,627,594,285,55,39
43,69,162,616,591,255,61,42
44,71,164,624,547,244,58,46
42,68,163,555,626,263,57,46
43,72,176,626,642,261,57,46
42,68,172,674,658,243,57,42
38,64,172,665,659,253,53,39
38,62,173,695,784,263,49,34
35,54,152,731,714,250,47,27
32,47,129,668,740,254,43,26
28,41,107,658,740,250,48,25
29,37,96,693,797,253,47,28
28,46,112,761,683,231,50,32
29,48,119,828,728,230,52,38
31,55,123,820,698,228,52,37
32,57,125,819,691,207,47,36
32,62,141,813,591,210,47,36
38,64,136,751,645,237,45,36
41,66,135,702,607,272,44,34
47,68,146,707,663,276,51,39
49,67,143,675,659,297,50,42
53,70,140,692,682,299,52,49
53,71,151,764,690,316,52,52
52,72,146,712,707,302,51,51
31,55,123,820,698,228,52,37
32,57,125,819,691,207,47,36
32,62,141,813,591,210,47,36
38,64,136,751,645,237,45,36
41,66,135,702,607,272,44,34
47,68,146,707,663,276,51,39
49,67,143,675,659,297,50,42
53,70,140,692,682,299,52,49
53,71,151,764,690,316,52,52
52,72,146,712,707,302,51,51
45,67,130,738,644,310,49,48
50,71,142,795,671,303,56,53
46,67,131,790,661,302,57,48
42,62,113,749,650,276,59,43
46,66,126,782,743,256,59,49
49,66,126,785,875,293,59,52
46,64,112,718,905,301,53,49
47,68,129,687,894,284,51,49
49,69,131,671,840,319,53,51
46,66,143,610,863,312,49,46
46,69,154,627,730,267,47,44
45,73,183,720,769,259,46,44
44,68,169,727,838,261,55,46
41,64,173,749,948,219,51,44
42,65,170,794,860,253,58,46
39,58,159,765,982,244,62,44
38,53,134,728,944,245,63,43
40,57,135,705,1001,262,58,39
42,61,137,714,901,292,58,42
41,57,136,729,901,260,52,43
46,69,154,627,730,267,47,44
45,73,183,720,769,259,46,44
44,68,169,727,838,261,55,46
41,64,173,749,948,219,51,44
42,65,170,794,860,253,58,46
39,58,159,765,982,244,62,44
38,53,134,728,944,245,63,43
40,57,135,705,1001,262,58,39
42,61,137,714,901,292,58,42
41,57,136,729,901,260,52,43
48,68,165,805,817,282,55,51
48,68,172,809,856,309,54,50
45,68,195,891,783,314,52,48
43,70,200,891,856,276,52,46
40,68,190,849,899,283,53,43
36,62,176,836,858,265,47,37
35,59,166,816,755,241,47,36
37,56,145,812,757,212,48,38
38,53,129,741,709,213,57,39
38,53,133,793,632,280,56,39
35,44,124,723,719,312,56,35
34,46,120,669,724,307,56,35
36,50,123,567,682,320,56,38
39,50,124,573,618,326,50,39
39,51,134,582,594,282,47,41
39,54,137,649,443,272,45,42
45,59,147,687,459,282,51,46
44,63,147,675,439,276,50,44
41,61,149,688,479,280,49,42
40,59,136,609,490,258,49,40
35,44,124,723,719,312,56,35
34,46,120,669,724,307,56,35
36,50,123,567,682,320,56,38
39,50,124,573,618,326,50,39
39,51,134,582,594,282,47,41
39,54,137,649,443,272,45,42
45,59,147,687,459,282,51,46
44,63,147,675,439,276,50,44
41,61,149,688,479,280,49,42
40,59,136,609,490,258,49,40
42,61,132,516,489,255,60,48
43,66,140,536,556,269,57,48
42,59,127,585,662,270,55,49
47,73,181,717,709,270,54,52
49,75,183,716,729,306,59,54
49,73,184,763,788,285,48,46
44,62,167,722,755,252,46,40
47,69,174,695,694,254,51,43
44,59,113,532,662,270,54,43
42,61,121,598,699,253,48,42
40,65,129,567,672,277,48,42
41,68,135,660,663,279,49,44
36,63,138,693,619,285,46,38
34,59,138,681,595,268,42,35
37,59,133,650,529,274,49,38
37,53,116,628,527,255,51,39
39,57,125,613,532,249,50,40
37,53,113,561,594,260,51,39
42,55,109,562,649,265,54,43
38,51,98,531,647,235,50,40
40,65,129,567,672,277,48,42
41,68,135,660,663,279,49,44
36,63,138,693,619,285,46,38
34,59,138,681,595,268,42,35
37,59,133,650,529,274,49,38
37,53,116,628,527,255,51,39
39,57,125,613,532,249,50,40
37,53,113,561,594,260,51,39
42,55,109,562,649,265,54,43
38,51,98,531,647,235,50,40
37,51,107,556,666,226,52,40
37,50,103,464,645,260,51,41
41,63,124,475,628,222,52,47
39,62,120,474,558,196,50,45
40,63,120,473,576,210,53,45
40,64,125,492,602,242,49,42
38,62,117,566,656,209,51,41
39,57,134,647,704,223,48,37
41,64,142,671,749,254,49,41
47,74,160,753,799,263,47,44
51,79,159,783,760,250,48,47
52,81,161,776,709,253,45,48
48,79,145,751,662,261,44,45
51,87,179,811,598,241,46,48
48,81,177,777,486,218,46,45
50,83,189,808,590,213,45,45
52,84,205,808,635,241,46,43
54,82,198,781,625,251,48,44
49,68,163,696,654,266,45,36
47,65,151,680,669,263,44,36
28,35,78,428,463,168,47,30
33,44,110,503,519,155,49,31
53,78,174,692,656,150,53,49
60,92,209,756,764,166,56,54
62,100,229,836,756,153,57,56
62,100,231,846,765,145,57,56
64,105,228,825,768,134,58,60
66,106,210,701,733,144,57,58
63,99,183,682,680,139,57,56
63,94,165,685,697,174,58,57
70,104,182,766,716,174,65,65
75,108,219,875,717,177,71,66
65,90,203,925,811,171,69,60
63,87,198,912,854,181,69,58
71,104,233,887,874,172,81,69
64,95,225,850,971,177,78,63
53,85,183,762,982,178,77,58
63,100,205,751,906,209,88,64
83,121,246,880,1044,251,101,80
82,115,242,898,1058,258,98,77
90,126,269,972,1045,297,104,85
96,134,297,1057,1104,333,107,90
100,151,337,1142,1084,338,108,98
100,155,340,1146,949,334,103,94
106,170,390,1176,957,325,106,97
103,167,382,1131,977,299,106,95
109,181,391,1105,975,258,106,99
105,165,357,1088,983,250,102,95
92,150,341,988,997,260,101,92
81,127,263,947,1013,263,92,83
90,126,269,972,1045,297,104,85
96,134,297,1057,1104,333,107,90
100,151,337,1142,1084,338,108,98
100,155,340,1146,949,334,103,94
106,170,390,1176,957,325,106,97
103,167,382,1131,977,299,106,95
109,181,391,1105,975,258,106,99
105,165,357,1088,983,250,102,95
92,150,341,988,997,260,101,92
81,127,263,947,1013,263,92,83
80,125,248,899,961,307,89,79
66,94,192,856,965,357,94,76
68,94,200,844,1129,345,90,75
69,94,179,866,1111,316,85,72
67,95,199,966,1101,343,93,72
64,88,196,1051,1081,301,90,73
66,92,218,1107,1031,277,79,67
62,86,199,1052,886,307,76,61
64,91,205,1022,899,326,80,66
68,97,205,941,838,303,68,67
70,100,202,892,856,297,67,67
66,96,182,875,881,306,64,66
60,91,187,877,890,273,69,63
59,92,199,890,895,246,66,57
58,95,219,884,977,271,69,56
60,96,245,992,975,278,73,57
62,97,250,929,937,243,77,60
70,107,279,1055,902,280,74,63
71,107,270,1023,889,299,78,69
69,99,255,993,800,277,77,67
70,100,202,892,856,297,67,67
66,96,182,875,881,306,64,66
60,91,187,877,890,273,69,63
59,92,199,890,895,246,66,57
58,95,219,884,977,271,69,56
60,96,245,992,975,278,73,57
62,97,250,929,937,243,77,60
70,107,279,1055,902,280,74,63
71,107,270,1023,889,299,78,69
69,99,255,993,800,277,77,67
65,97,255,853,869,296,71,64
64,96,250,860,864,315,67,59
54,80,210,749,866,291,67,55
49,71,201,731,807,268,63,52
45,65,170,772,801,271,61,48
42,62,139,803,698,271,69,50
43,66,141,758,690,259,71,52
54,74,161,686,658,327,74,58
51,74,175,743,663,337,71,52
56,77,181,715,638,348,75,57
58,82,184,665,697,330,78,59
55,78,188,729,808,335,72,54
45,72,169,752,774,254,67,46
43,66,151,718,806,239,64,45
40,65,147,673,826,250,61,41
36,61,136,735,825,250,50,37
38,60,134,770,705,242,55,40
39,57,132,777,754,273,65,44
39,61,152,845,717,270,65,45
37,59,149,865,733,246,64,42
58,82,184,665,697,330,78,59
55,78,188,729,808,335,72,54
45,72,169,752,774,254,67,46
43,66,151,718,806,239,64,45
40,65,147,673,826,250,61,41
36,61,136,735,825,250,50,37
38,60,134,770,705,242,55,40
39,57,132,777,754,273,65,44
39,61,152,845,717,270,65,45
37,59,149,865,733,246,64,42
37,55,152,846,682,253,66,42
40,62,166,902,805,262,73,46
38,60,166,879,835,270,62,41
49,72,173,856,936,303,70,49
50,75,185,886,897,290,74,52
58,89,209,909,866,277,72,54
55,87,193,772,833,270,68,51
61,94,206,735,785,230,69,56
53,83,190,692,703,205,59,46
53,82,183,711,739,215,58,47
45,63,150,638,759,229,56,43
47,66,160,652,718,220,52,44
48,65,147,684,741,228,52,46
53,73,168,691,799,215,54,51
54,78,178,600,848,233,49,52
57,84,191,614,809,260,56,51
55,80,182,680,790,259,57,50
51,75,175,666,756,253,60,48
47,73,164,652,719,263,59,47
46,71,162,687,645,234,59,45
45,63,150,638,759,229,56,43
47,66,160,652,718,220,52,44
48,65,147,684,741,228,52,46
53,73,168,691,799,215,54,51
54,78,178,600,848,233,49,52
57,84,191,614,809,260,56,51
55,80,182,680,790,259,57,50
51,75,175,666,756,253,60,48
47,73,164,652,719,263,59,47
46,71,162,687,645,234,59,45
46,72,168,697,678,194,56,48
45,71,167,609,691,200,55,46
41,64,161,578,691,246,48,42
43,63,162,627,643,252,53,39
42,61,156,590,594,263,54,39
42,62,137,548,647,269,53,37
44,65,133,599,655,287,52,39
43,67,129,600,654,247,55,41
42,64,124,613,685,226,51,43
42,59,119,666,713,232,51,42
38,51,113,731,655,250,51,41
37,50,128,775,586,218,60,41
43,58,141,808,569,259,58,41
45,66,142,768,456,296,58,40
48,73,151,728,533,297,61,45
46,73,156,675,581,311,64,44
49,75,151,664,686,308,64,47
50,77,169,739,778,295,65,50
45,71,170,739,881,264,63,48
42,65,155,723,847,253,62,44
38,51,113,731,655,250,51,41
37,50,128,775,586,218,60,41
43,58,141,808,569,259,58,41
45,66,142,768,456,296,58,40
48,73,151,728,533,297,61,45
46,73,156,675,581,311,64,44
49,75,151,664,686,308,64,47
50,77,169,739,778,295,65,50
45,71,170,739,881,264,63,48
42,65,155,723,847,253,62,44
43,65,151,720,871,251,59,49
38,61,142,637,819,264,55,44
33,55,134,538,816,248,52,40
34,54,122,524,786,246,53,38
36,58,143,513,794,322,51,41
33,56,154,591,838,295,46,32
35,55,152,599,824,291,50,33
42,64,154,639,774,312,50,39
41,62,158,714,739,324,51,38
39,62,140,738,761,254,51,36
43,62,140,681,674,272,57,40
44,65,150,698,650,267,54,43
35,57,140,651,716,278,56,39
35,56,141,595,719,322,56,40
40,54,153,662,688,329,58,45
42,61,143,703,668,323,60,47
43,64,143,683,676,380,59,47
50,69,149,656,673,351,65,52
51,70,145,626,667,345,67,53
51,74,145,599,703,330,73,51
43,62,140,681,674,272,57,40
44,65,150,698,650,267,54,43
35,57,140,651,716,278,56,39
35,56,141,595,719,322,56,40
40,54,153,662,688,329,58,45
42,61,143,703,668,323,60,47
43,64,143,683,676,380,59,47
50,69,149,656,673,351,65,52
51,70,145,626,667,345,67,53
51,74,145,599,703,330,73,51
47,69,147,586,733,315,69,49
45,68,163,673,771,262,67,46
36,58,150,729,730,293,60,37
38,59,152,737,744,252,61,38
33,52,145,727,716,252,54,34
34,53,139,720,745,318,55,34
35,51,121,656,773,306,56,37
44,60,136,622,761,281,64,45
49,67,141,682,747,305,70,52
51,71,153,638,776,309,70,53
52,76,163,674,704,244,72,56
54,79,174,670,642,260,68,55
49,77,177,737,600,322,64,49
44,71,170,693,627,282,61,41
40,67,164,757,541,321,59,39
39,61,158,707,624,335,56,34
36,54,142,686,629,324,58,33
31,45,115,572,665,274,58,31
28,40,116,562,613,266,53,27
29,45,133,476,636,210,53,27
52,76,163,674,704,244,72,56
54,79,174,670,642,260,68,55
49,77,177,737,600,322,64,49
44,71,170,693,627,282,61,41
40,67,164,757,541,321,59,39
39,61,158,707,624,335,56,34
36,54,142,686,629,324,58,33
31,45,115,572,665,274,58,31
28,40,116,562,613,266,53,27
29,45,133,476,636,210,53,27
27,42,130,545,609,271,53,26
30,46,127,547,657,271,57,30
35,57,161,618,618,256,54,34
39,60,159,607,655,286,55,39
41,56,139,605,620,295,54,40
42,58,158,641,623,231,57,39
38,58,176,825,654,222,51,35
36,50,149,775,665,235,54,33
35,52,153,802,627,240,49,30
33,53,161,852,701,230,46,30
32,51,137,819,672,242,52,34
36,51,118,679,644,283,61,42
35,51,131,716,701,304,57,42
33,52,131,673,776,299,60,42
35,50,122,654,790,320,61,43
40,67,148,694,820,328,53,43
41,69,155,655,831,294,49,42
45,71,146,685,806,265,54,42
49,73,143,700,769,265,54,48
49,73,143,724,792,261,56,48
32,51,137,819,672,242,52,34
36,51,118,679,644,283,61,42
35,51,131,716,701,304,57,42
33,52,131,673,776,299,60,42
35,50,122,654,790,320,61,43
40,67,148,694,820,328,53,43
41,69,155,655,831,294,49,42
45,71,146,685,806,265,54,42
49,73,143,700,769,265,54,48
49,73,143,724,792,261,56,48
47,61,125,680,784,252,58,48
42,54,117,727,733,256,54,44
42,62,147,725,782,278,53,45
39,58,156,710,780,284,55,39
38,57,150,643,673,279,51,37
38,60,153,703,670,263,52,32
41,63,162,644,646,260,53,36
43,63,161,653,638,287,56,38
43,63,160,719,638,256,52,38
43,61,157,697,698,249,61,40
43,61,155,606,736,285,59,43
47,74,179,692,770,331,65,46
45,67,159,643,779,302,67,46
43,66,153,552,744,328,80,46
44,69,159,546,730,337,77,46
45,67,156,533,694,317,80,45
39,52,112,430,747,319,74,40
37,53,124,498,706,335,69,36
39,55,123,513,715,315,55,36
43,59,140,568,717,339,55,38
43,61,155,606,736,285,59,43
47,74,179,692,770,331,65,46
45,67,159,643,779,302,67,46
43,66,153,552,744,328,80,46
44,69,159,546,730,337,77,46
45,67,156,533,694,317,80,45
39,52,112,430,747,319,74,40
37,53,124,498,706,335,69,36
39,55,123,513,715,315,55,36
43,59,140,568,717,339,55,38
44,59,137,544,715,333,54,37
43,62,140,546,623,288,55,37
43,60,128,496,600,252,58,38
42,61,133,501,701,275,58,40
39,58,124,471,731,244,54,39
37,56,132,544,717,265,49,38
42,58,143,646,744,289,52,41
42,56,137,641,721,318,46,38
49,66,151,685,600,311,48,43
47,64,143,707,613,292,49,42
48,66,154,781,589,326,52,44
43,61,146,731,576,342,50,40
46,62,148,712,580,321,52,44
39,50,130,650,658,329,51,40
40,51,129,640,622,370,49,42
40,50,106,531,639,324,49,38
40,48,96,508,726,296,50,39
42,47,109,586,732,307,49,36
41,48,114,614,747,290,49,33
41,48,125,603,703,243,49,32
48,66,154,781,589,326,52,44
43,61,146,731,576,342,50,40
46,62,148,712,580,321,52,44
39,50,130,650,658,329,51,40
40,51,129,640,622,370,49,42
40,50,106,531,639,324,49,38
40,48,96,508,726,296,50,39
42,47,109,586,732,307,49,36
41,48,114,614,747,290,49,33
41,48,125,603,703,243,49,32
43,56,154,623,720,268,51,35
41,58,169,619,617,278,48,35
35,59,180,652,607,266,51,38
38,64,179,674,548,257,49,40
38,63,169,671,566,312,54,39
35,53,152,727,547,287,50,39
36,50,134,734,610,281,50,37
38,51,112,660,604,300,59,40
36,50,124,675,558,313,60,39
41,64,142,674,553,272,61,46
42,73,148,588,564,267,62,49
47,78,172,603,473,251,68,54
48,80,179,626,527,224,60,52
49,78,174,678,580,248,61,53
42,67,159,676,667,242,64,47
41,64,175,685,643,246,64,44
37,58,155,661,740,252,59,40
36,55,151,643,728,282,65,39
36,55,145,548,801,258,63,39
37,55,148,594,765,271,55,37
42,73,148,588,564,267,62,49
47,78,172,603,473,251,68,54
48,80,179,626,527,224,60,52
49,78,174,678,580,248,61,53
42,67,159,676,667,242,64,47
41,64,175,685,643,246,64,44
37,58,155,661,740,252,59,40
36,55,151,643,728,282,65,39
36,55,145,548,801,258,63,39
37,55,148,594,765,271,55,37
35,46,105,559,775,283,55,35
39,55,130,604,737,308,51,35
41,63,151,621,693,279,42,37
37,59,160,642,601,289,39,34
37,60,163,653,540,289,43,35
39,62,169,657,608,302,44,35
35,55,150,591,566,273,44,32
31,44,121,565,679,280,40,29
34,47,127,566,739,263,43,34
35,48,142,602,775,268,41,34
35,49,145,648,774,248,44,35
41,51,154,658,817,265,46,41
41,57,156,671,796,264,45,41
41,57,161,761,737,299,47,39
43,64,153,683,714,316,48,44
44,65,158,667,678,321,47,43
40,64,157,680,620,297,45,40
39,58,152,665,619,290,44,38
37,54,131,530,609,290,47,37
35,51,132,557,589,246,47,31
35,49,145,648,774,248,44,35
41,51,154,658,817,265,46,41
41,57,156,671,796,264,45,41
41,57,161,761,737,299,47,39
43,64,153,683,714,316,48,44
44,65,158,667,678,321,47,43
40,64,157,680,620,297,45,40
39,58,152,665,619,290,44,38
37,54,131,530,609,290,47,37
35,51,132,557,589,246,47,31
32,48,129,534,600,250,44,32
32,54,142,572,666,259,48,31
34,59,154,594,644,267,57,34
35,63,154,600,637,231,52,34
37,64,148,602,679,257,51,36
38,63,137,595,669,233,53,36
40,62,145,714,625,225,60,42
43,61,152,767,599,221,64,47
44,61,156,863,673,264,68,49
42,61,158,889,689,258,68,46
43,64,168,936,689,265,70,47
42,61,143,833,736,264,67,44
40,61,122,752,736,261,60,39
38,61,117,628,675,259,55,38
42,60,127,614,651,261,56,39
41,59,121,525,622,258,53,38
43,59,134,562,554,261,61,43
97,63,134,572,516,251,59,40
233,76,127,546,494,187,64,47
303,97,105,456,411,140,147,58
29,29,57,275,308,105,44,24
30,29,55,256,276,105,43,24
30,29,57,272,275,86,37,22
24,31,58,237,253,104,40,21
24,32,52,233,289,103,39,22
33,34,48,211,341,99,37,21
32,32,56,284,341,101,40,23
30,33,60,280,321,106,42,27
30,28,56,265,337,89,44,30
31,32,75,269,317,89,44,30
22,32,77,273,249,93,43,31
22,33,80,272,246,91,42,30
23,32,74,266,285,87,41,27
22,36,85,305,305,97,36,24
20,30,73,301,318,105,39,24
22,37,93,347,342,102,38,24
27,46,106,350,357,108,41,27
28,48,111,424,380,109,39,28
36,51,108,452,365,107,42,32
39,55,114,468,412,97,46,40
40,60,121,545,512,108,48,43
43,65,129,575,571,100,50,47
44,69,141,629,566,106,53,47
43,74,159,687,638,124,58,49
44,74,159,717,656,125,55,46
46,81,167,697,592,125,68,49
44,79,169,768,562,146,69,48
48,83,178,846,578,147,71,53
50,88,179,826,564,126,71,53
50,92,201,961,704,136,71,54
40,60,121,545,512,108,48,43
43,65,129,575,571,100,50,47
44,69,141,629,566,106,53,47
43,74,159,687,638,124,58,49
44,74,159,717,656,125,55,46
46,81,167,697,592,125,68,49
44,79,169,768,562,146,69,48
48,83,178,846,578,147,71,53
50,88,179,826,564,126,71,53
50,92,201,961,704,136,71,54
52,89,216,1060,897,169,63,52
53,87,213,1086,1051,155,60,53
61,103,240,1103,1156,199,72,61
81,126,261,1124,1224,238,90,79
83,128,264,1109,1203,287,100,84
96,141,273,1098,1138,302,113,99
100,149,287,1080,1053,366,119,102
101,152,292,1004,1008,402,130,106
89,137,281,1020,1003,397,121,96
92,147,309,1103,1011,376,118,97
82,141,298,1058,1029,376,113,84
80,141,315,1076,1073,382,118,83
71,122,284,1070,1016,349,98,72
79,135,298,1036,1044,345,107,82
84,135,265,845,1159,349,116,88
87,138,277,894,1174,379,117,90
102,162,319,852,1145,428,114,102
110,178,351,880,1203,439,123,109
104,162,329,910,1142,492,119,104
97,156,337,964,1012,508,117,97
82,141,298,1058,1029,376,113,84
80,141,315,1076,1073,382,118,83
71,122,284,1070,1016,349,98,72
79,135,298,1036,1044,345,107,82
84,135,265,845,1159,349,116,88
87,138,277,894,1174,379,117,90
102,162,319,852,1145,428,114,102
110,178,351,880,1203,439,123,109
104,162,329,910,1142,492,119,104
97,156,337,964,1012,508,117,97
93,149,324,890,964,473,111,95
85,131,295,887,975,452,124,89
80,121,274,876,888,444,118,88
77,122,279,876,850,421,118,84
74,114,262,885,819,402,112,82
84,128,272,910,836,442,127,96
74,115,244,893,752,405,112,90
67,100,222,879,896,389,109,82
65,100,227,891,989,393,99,80
64,102,235,911,1048,397,96,78
59,99,262,964,1048,352,72,59
61,97,249,1007,1106,303,71,57
66,107,274,1016,1116,296,75,61
77,112,267,994,1179,231,83,72
81,115,266,973,1120,279,89,78
73,101,240,965,1084,296,93,76
72,101,260,930,1026,306,89,74
67,95,249,993,975,317,85,71
62,97,264,1037,813,330,81,69
61,97,260,1045,879,301,76,68
59,99,262,964,1048,352,72,59
61,97,249,1007,1106,303,71,57
66,107,274,1016,1116,296,75,61
77,112,267,994,1179,231,83,72
81,115,266,973,1120,279,89,78
73,101,240,965,1084,296,93,76
72,101,260,930,1026,306,89,74
67,95,249,993,975,317,85,71
62,97,264,1037,813,330,81,69
61,97,260,1045,879,301,76,68
62,93,234,1009,882,311,69,69
64,94,205,1033,951,307,66,70
65,93,210,1028,921,316,66,68
58,84,189,964,941,315,65,62
53,76,186,924,924,291,64,56
48,71,190,885,962,290,65,52
45,64,192,905,958,309,67,52
46,74,200,895,945,282,64,55
51,80,194,927,920,312,66,57
61,96,212,935,943,345,72,68
65,105,231,968,1050,320,74,71
65,112,270,1005,1060,331,72,69
67,110,261,972,1042,350,76,69
68,112,283,999,1015,316,77,70
67,107,267,1005,950,298,73,63
77,117,268,997,842,305,78,70
76,112,238,859,751,295,77,70
76,115,275,864,769,312,82,72
72,110,259,820,833,343,83,68
64,101,253,729,766,344,77,64
65,105,231,968,1050,320,74,71
65,112,270,1005,1060,331,72,69
67,110,261,972,1042,350,76,69
68,112,283,999,1015,316,77,70
67,107,267,1005,950,298,73,63
77,117,268,997,842,305,78,70
76,112,238,859,751,295,77,70
76,115,275,864,769,312,82,72
72,110,259,820,833,343,83,68
64,101,253,729,766,344,77,64
49,86,258,723,792,345,71,53
53,87,249,763,773,340,74,54
56,87,202,701,764,321,70,56
59,91,212,654,693,305,64,57
59,89,211,682,733,280,68,56
56,84,189,696,649,280,72,54
51,82,196,687,714,274,70,51
44,68,184,666,713,258,69,44
40,59,178,721,824,238,69,44
48,67,184,813,840,244,73,50
52,72,173,809,846,307,70,56
59,75,156,815,818,295,72,62
63,83,179,863,888,316,73,66
64,88,182,869,835,325,74,69
68,99,219,812,846,330,72,73
71,107,248,799,822,277,77,75
69,105,244,770,820,289,75,70
66,103,253,853,745,285,76,67
64,99,249,830,681,280,73,61
56,84,210,847,673,274,74,52
52,72,173,809,846,307,70,56
59,75,156,815,818,295,72,62
63,83,179,863,888,316,73,66
64,88,182,869,835,325,74,69
68,99,219,812,846,330,72,73
71,107,248,799,822,277,77,75
69,105,244,770,820,289,75,70
66,103,253,853,745,285,76,67
64,99,249,830,681,280,73,61
56,84,210,847,673,274,74,52
48,72,186,815,692,323,71,43
44,66,187,843,705,350,69,41
41,60,166,823,677,340,65,39
42,61,172,842,746,349,70,44
43,65,184,811,775,391,73,49
46,65,175,807,763,360,79,58
46,70,233,877,847,331,78,60
49,72,229,825,907,371,89,63
57,87,247,809,954,356,98,71
59,89,241,905,964,316,100,77
65,97,257,908,957,317,93,75
64,98,255,911,880,319,97,74
72,112,273,881,963,289,93,83
66,101,255,975,917,296,81,78
66,103,256,929,956,367,75,70
62,97,242,1000,950,355,81,73
65,98,193,899,982,359,78,75
55,86,213,921,884,346,78,67
66,92,243,866,961,384,98,77
85,112,264,871,903,333,112,92
65,97,257,908,957,317,93,75
64,98,255,911,880,319,97,74
72,112,273,881,963,289,93,83
66,101,255,975,917,296,81,78
66,103,256,929,956,367,75,70
62,97,242,1000,950,355,81,73
65,98,193,899,982,359,78,75
55,86,213,921,884,346,78,67
66,92,243,866,961,384,98,77
85,112,264,871,903,333,112,92
97,139,318,913,985,336,116,94
101,155,387,1045,992,352,122,98
102,154,374,1082,1036,355,119,97
98,150,373,1091,978,331,110,91
79,132,393,1075,1048,326,100,74
67,109,367,1067,1023,322,102,71
71,97,318,1028,1039,310,107,79
74,103,314,988,1008,310,109,82
77,113,317,949,998,286,112,85
76,114,299,988,922,336,113,85
76,118,324,941,856,365,108,82
65,107,309,899,839,368,96,68
57,98,306,858,759,364,98,63
56,94,303,945,785,380,98,56
57,94,304,918,764,323,95,59
55,80,256,950,817,295,98,58
55,89,267,959,827,294,104,60
57,90,262,988,833,291,97,61
54,82,235,931,855,299,103,62
60,82,206,866,887,301,108,68
76,118,324,941,856,365,108,82
65,107,309,899,839,368,96,68
57,98,306,858,759,364,98,63
56,94,303,945,785,380,98,56
57,94,304,918,764,323,95,59
55,80,256,950,817,295,98,58
55,89,267,959,827,294,104,60
57,90,262,988,833,291,97,61
54,82,235,931,855,299,103,62
60,82,206,866,887,301,108,68
70,96,224,804,855,288,109,80
69,85,207,824,840,291,107,79
70,92,242,888,881,313,107,78
74,97,245,924,818,297,97,81
71,100,250,934,815,288,89,76
60,87,229,900,808,289,80,60
63,88,221,849,835,271,78,60
62,80,165,791,809,246,80,60
57,69,152,752,917,239,73,52
54,60,138,773,950,270,72,48
51,61,143,862,918,283,69,45
47,59,172,883,840,333,64,40
47,62,206,865,903,357,67,43
44,64,220,829,840,349,63,40
43,68,221,854,771,320,62,41
44,70,224,800,799,336,72,46
44,71,205,738,819,302,73,48
42,66,178,904,806,293,71,46
47,73,184,900,767,290,73,50
54,77,182,894,801,297,74,57
51,61,143,862,918,283,69,45
47,59,172,883,840,333,64,40
47,62,206,865,903,357,67,43
44,64,220,829,840,349,63,40
43,68,221,854,771,320,62,41
44,70,224,800,799,336,72,46
44,71,205,738,819,302,73,48
42,66,178,904,806,293,71,46
47,73,184,900,767,290,73,50
54,77,182,894,801,297,74,57
58,83,178,892,836,287,64,54
59,87,177,907,825,275,68,57
61,92,195,761,775,264,70,60
61,95,197,761,728,287,66,60
56,93,217,778,764,295,68,59
58,93,229,840,852,306,72,64
61,96,243,861,884,308,66,64
61,97,252,915,881,308,62,62
58,88,233,877,988,325,63,58
63,93,241,897,915,310,75,60
54,82,234,867,843,278,71,53
52,82,240,911,804,269,79,55
55,83,218,870,844,253,82,57
57,84,222,917,699,226,84,61
53,79,202,871,765,251,70,55
55,84,203,849,809,264,69,56
51,77,183,827,833,251,57,50
49,73,195,798,770,313,58,52
45,72,200,798,794,296,53,49
42,68,196,791,709,286,54,46
54,82,234,867,843,278,71,53
52,82,240,911,804,269,79,55
55,83,218,870,844,253,82,57
57,84,222,917,699,226,84,61
53,79,202,871,765,251,70,55
55,84,203,849,809,264,69,56
51,77,183,827,833,251,57,50
49,73,195,798,770,313,58,52
45,72,200,798,794,296,53,49
42,68,196,791,709,286,54,46
41,64,189,753,613,308,54,45
38,62,194,729,685,322,52,43
35,61,204,785,746,258,55,36
40,64,200,747,751,266,55,40
41,67,217,795,793,280,58,41
47,72,246,829,838,268,60,46
51,74,249,846,769,291,66,51
51,80,261,787,745,297,62,52
50,79,257,828,779,303,61,48
48,75,237,808,757,325,61,47
43,67,217,778,690,313,56,41
41,68,217,713,658,280,49,38
40,56,173,717,618,280,51,42
42,56,179,663,638,336,51,41
45,61,194,640,601,330,48,40
46,68,178,601,597,332,49,44
52,73,162,623,694,334,54,49
53,77,185,635,732,351,57,48
57,86,204,651,671,290,62,53
60,90,209,603,725,261,64,56
43,67,217,778,690,313,56,41
41,68,217,713,658,280,49,38
40,56,173,717,618,280,51,42
42,56,179,663,638,336,51,41
45,61,194,640,601,330,48,40
46,68,178,601,597,332,49,44
52,73,162,623,694,334,54,49
53,77,185,635,732,351,57,48
57,86,204,651,671,290,62,53
60,90,209,603,725,261,64,56
62,93,234,662,761,248,68,57
55,88,240,713,694,265,67,53
57,86,230,722,668,240,64,52
50,75,207,673,666,264,63,45
44,68,202,727,644,247,60,41
40,56,168,687,621,320,58,41
41,58,194,771,617,328,55,39
39,55,199,732,710,331,61,41
40,53,194,786,762,354,59,43
40,51,190,889,790,360,60,44
41,57,209,914,803,307,62,43
45,61,185,832,815,293,65,48
47,65,166,867,747,304,58,49
50,72,178,837,736,252,59,50
52,80,181,679,772,247,64,53
58,89,204,692,740,261,61,55
55,86,212,656,757,301,59,50
53,86,220,686,726,292,57,47
51,80,216,771,710,303,57,44
47,71,214,786,649,314,52,40
41,57,209,914,803,307,62,43
45,61,185,832,815,293,65,48
47,65,166,867,747,304,58,49
50,72,178,837,736,252,59,50
52,80,181,679,772,247,64,53
58,89,204,692,740,261,61,55
55,86,212,656,757,301,59,50
53,86,220,686,726,292,57,47
51,80,216,771,710,303,57,44
47,71,214,786,649,314,52,40
38,61,201,791,679,322,50,37
43,67,208,845,704,286,48,41
42,69,210,777,750,275,55,41
43,72,209,692,690,288,56,45
47,75,210,679,648,278,54,43
47,69,186,631,734,254,55,45
45,61,156,540,655,232,55,44
45,58,181,619,659,254,52,43
47,60,209,613,706,241,54,42
47,66,213,645,722,259,55,44
44,66,224,738,644,259,61,39
42,64,233,778,641,315,66,38
41,61,202,757,641,308,67,42
39,53,170,813,642,283,64,42
35,39,148,783,694,265,65,40
63,44,158,800,728,251,59,46
78,49,158,760,733,257,54,47
81,55,171,769,737,249,47,45
117,57,173,712,861,256,50,50
172,65,185,721,817,253,51,52
44,66,224,738,644,259,61,39
42,64,233,778,641,315,66,38
41,61,202,757,641,308,67,42
39,53,170,813,642,283,64,42
35,39,148,783,694,265,65,40
63,44,158,800,728,251,59,46
78,49,158,760,733,257,54,47
81,55,171,769,737,249,47,45
117,57,173,712,861,256,50,50
172,65,185,721,817,253,51,52
173,70,167,673,764,244,60,58
214,87,152,660,760,148,59,58
241,109,138,573,732,136,68,75
248,151,132,567,600,119,128,112
402,166,118,518,641,109,180,138
425,168,103,402,642,134,297,140
461,159,92,451,724,140,312,144
553,169,91,442,757,134,318,145
574,156,90,411,730,130,329,129
487,149,81,415,666,133,310,102
495,165,94,428,656,123,206,104
461,171,122,458,595,131,184,99
337,149,119,445,511,142,174,86
409,128,117,421,461,151,108,78
404,114,115,421,491,146,88,78
384,81,107,396,495,140,70,74
369,66,91,295,529,123,66,73
362,59,96,354,568,112,57,74
212,52,96,373,573,128,45,54
161,45,96,350,539,130,43,47
25,31,59,224,300,124,42,26
30,43,81,245,272,130,42,28
32,48,95,394,314,164,43,30
40,59,113,501,339,179,55,38
43,61,117,582,345,171,57,41
42,63,119,616,394,164,55,42
39,57,106,640,440,167,59,43
39,57,104,572,493,139,59,41
40,55,112,517,536,136,51,41
39,63,130,519,551,164,47,40
39,61,130,527,534,161,47,38
39,63,134,513,499,161,41,35
40,65,139,586,544,165,42,37
35,61,130,628,549,161,41,34
34,52,111,699,585,153,40,33
34,49,103,708,637,153,40,34
37,56,110,753,684,157,44,38
41,57,100,832,679,155,46,41
53,74,157,905,716,153,58,48
59,82,168,853,792,132,63,53
75,101,210,856,865,134,75,69
83,117,241,861,905,173,95,82
87,124,262,840,1076,195,104,91
85,122,267,770,1047,196,103,91
90,138,325,910,1050,233,105,97
83,130,311,971,1065,281,98,89
78,117,292,948,1100,334,91,83
75,121,311,981,998,347,93,74
76,125,318,1136,1110,400,100,72
70,108,270,1168,1147,489,101,66
75,101,210,856,865,134,75,69
83,117,241,861,905,173,95,82
87,124,262,840,1076,195,104,91
85,122,267,770,1047,196,103,91
90,138,325,910,1050,233,105,97
83,130,311,971,1065,281,98,89
78,117,292,948,1100,334,91,83
75,121,311,981,998,347,93,74
76,125,318,1136,1110,400,100,72
70,108,270,1168,1147,489,101,66
72,109,284,1190,1112,513,109,70
72,109,307,1277,1134,526,106,71
81,112,306,1247,1066,554,110,83
81,109,293,1148,997,574,108,86
91,141,350,1001,897,531,117,92
99,148,406,988,882,511,123,98
106,159,415,929,821,464,128,108
109,167,437,982,867,461,131,111
108,163,438,1012,908,442,136,110
98,135,396,1098,992,410,128,104
97,141,379,1074,999,392,121,98
98,136,362,1100,1017,403,117,90
94,131,343,1119,1005,404,114,88
110,150,349,1137,967,353,110,98
118,159,347,1031,933,359,115,105
117,156,305,1050,957,366,127,109
121,167,313,1036,954,372,132,116
120,163,304,1130,980,320,125,111
105,145,280,1154,1061,385,123,103
98,138,268,1200,1023,439,118,95
97,141,379,1074,999,392,121,98
98,136,362,1100,1017,403,117,90
94,131,343,1119,1005,404,114,88
110,150,349,1137,967,353,110,98
118,159,347,1031,933,359,115,105
117,156,305,1050,957,366,127,109
121,167,313,1036,954,372,132,116
120,163,304,1130,980,320,125,111
105,145,280,1154,1061,385,123,103
98,138,268,1200,1023,439,118,95
99,143,271,1177,1030,500,107,98
97,145,274,1210,1026,492,103,94
100,141,246,1029,984,535,113,103
102,142,256,985,887,510,110,100
99,140,263,1023,912,491,122,100
88,124,262,1111,956,419,116,90
78,99,242,1065,1047,434,109,85
68,101,258,1045,1051,379,92,68
65,100,272,1015,1044,378,97,67
71,101,259,965,1065,354,99,75
74,105,241,786,1053,417,103,79
71,101,236,846,1009,395,104,76
81,106,228,935,1039,391,118,93
83,110,210,931,1063,452,130,96
76,108,227,972,1001,440,119,90
75,102,234,1007,1002,411,115,88
78,109,232,956,918,410,117,90
66,97,213,948,869,406,100,73
64,93,196,960,860,310,82,71
67,97,208,1036,970,317,74,68
74,105,241,786,1053,417,103,79
71,101,236,846,1009,395,104,76
81,106,228,935,1039,391,118,93
83,110,210,931,1063,452,130,96
76,108,227,972,1001,440,119,90
75,102,234,1007,1002,411,115,88
78,109,232,956,918,410,117,90
66,97,213,948,869,406,100,73
64,93,196,960,860,310,82,71
67,97,208,1036,970,317,74,68
67,103,215,1042,938,317,76,65
62,92,219,1012,939,315,72,59
58,91,217,1033,997,324,72,56
57,86,213,1032,1045,367,66,51
56,86,210,935,971,368,79,52
53,74,184,940,949,372,80,52
55,81,176,908,925,375,74,52
55,82,197,833,843,398,72,50
56,87,228,751,787,361,70,51
54,81,207,709,759,328,61,51
60,88,217,690,704,299,61,56
64,97,225,677,723,295,67,61
70,105,233,614,808,250,73,67
71,107,207,581,797,296,77,69
75,110,222,649,836,308,79,71
72,107,230,668,811,297,75,70
66,98,213,672,843,298,75,65
63,91,198,756,847,322,72,62
57,82,211,866,807,277,65,56
49,77,194,834,800,270,59,50
60,88,217,690,704,299,61,56
64,97,225,677,723,295,67,61
70,105,233,614,808,250,73,67
71,107,207,581,797,296,77,69
75,110,222,649,836,308,79,71
72,107,230,668,811,297,75,70
66,98,213,672,843,298,75,65
63,91,198,756,847,322,72,62
57,82,211,866,807,277,65,56
49,77,194,834,800,270,59,50
49,79,196,800,835,269,61,48
44,72,204,818,775,318,56,45
41,72,203,768,762,302,53,43
46,79,209,664,776,311,52,46
48,77,216,651,794,334,51,47
44,66,202,678,805,347,52,44
49,70,193,679,829,289,59,51
53,77,225,780,781,286,58,53
58,87,235,808,803,285,61,59
58,93,241,799,722,254,63,59
60,99,256,833,773,273,60,58
58,98,268,894,755,301,61,55
52,85,241,819,805,337,62,53
44,66,214,819,808,350,64,45
45,61,200,820,870,352,63,45
42,61,176,779,915,325,62,44
39,65,161,698,950,323,53,39
38,67,146,651,910,285,54,36
38,73,152,696,916,269,56,39
41,83,181,715,917,272,58,40
60,99,256,833,773,273,60,58
58,98,268,894,755,301,61,55
52,85,241,819,805,337,62,53
44,66,214,819,808,350,64,45
45,61,200,820,870,352,63,45
42,61,176,779,915,325,62,44
39,65,161,698,950,323,53,39
38,67,146,651,910,285,54,36
38,73,152,696,916,269,56,39
41,83,181,715,917,272,58,40
40,80,186,819,818,266,58,42
45,80,199,918,794,237,56,44
43,81,210,951,755,233,51,43
46,81,210,876,744,223,48,46
42,68,187,859,679,217,47,44
46,71,187,784,618,223,54,47
47,71,185,682,591,241,59,50
51,74,190,754,612,235,64,55
48,73,191,770,620,222,61,49
48,70,194,794,631,228,59,47
45,65,188,733,674,229,56,42
39,57,171,745,686,234,57,39
40,51,160,681,698,230,56,39
38,44,150,675,645,257,58,40
37,47,147,595,646,278,60,41
40,42,151,654,654,262,60,44
40,50,165,696,698,236,55,45
37,49,164,710,701,244,52,42
37,52,203,774,748,266,53,41
39,53,200,773,730,277,58,43
45,65,188,733,674,229,56,42
39,57,171,745,686,234,57,39
40,51,160,681,698,230,56,39
38,44,150,675,645,257,58,40
37,47,147,595,646,278,60,41
40,42,151,654,654,262,60,44
40,50,165,696,698,236,55,45
37,49,164,710,701,244,52,42
37,52,203,774,748,266,53,41
39,53,200,773,730,277,58,43
41,63,219,832,716,283,59,39
39,60,225,822,701,302,61,36
39,60,221,769,682,308,60,36
40,57,178,743,691,274,57,34
39,55,172,771,746,241,51,32
34,44,135,687,724,288,46,31
37,44,128,691,736,264,47,33
40,49,138,709,764,271,53,34
49,67,164,683,790,316,57,46
54,73,172,711,782,308,58,49
56,76,185,691,850,255,61,53
58,80,179,614,782,298,61,52
56,80,193,709,797,318,57,50
54,73,192,786,777,274,53,46
55,71,199,816,803,293,51,48
56,71,201,892,747,304,51,47
53,63,194,888,774,306,53,48
57,67,198,838,832,268,55,53
53,62,182,751,786,254,54,48
53,67,174,677,789,247,59,49
56,76,185,691,850,255,61,53
58,80,179,614,782,298,61,52
56,80,193,709,797,318,57,50
54,73,192,786,777,274,53,46
55,71,199,816,803,293,51,48
56,71,201,892,747,304,51,47
53,63,194,888,774,306,53,48
57,67,198,838,832,268,55,53
53,62,182,751,786,254,54,48
53,67,174,677,789,247,59,49
56,76,183,662,820,251,58,51
57,78,184,709,856,219,52,50
52,72,180,717,830,227,57,46
54,73,181,759,826,277,61,51
48,63,176,742,777,272,54,47
44,58,157,653,777,303,60,46
45,64,181,677,751,322,69,47
48,76,199,644,673,324,66,46
44,76,203,663,774,292,64,41
40,76,205,779,857,284,66,37
39,71,202,861,909,271,69,37
35,68,192,853,885,245,66,34
32,58,151,850,889,235,66,34
34,58,159,840,815,248,71,36
39,58,160,865,708,266,74,40
38,58,175,849,664,265,65,37
41,58,157,948,697,268,62,41
41,56,155,922,707,287,61,42
41,54,154,951,732,283,54,41
40,55,160,883,727,269,49,37
39,71,202,861,909,271,69,37
35,68,192,853,885,245,66,34
32,58,151,850,889,235,66,34
34,58,159,840,815,248,71,36
39,58,160,865,708,266,74,40
38,58,175,849,664,265,65,37
41,58,157,948,697,268,62,41
41,56,155,922,707,287,61,42
41,54,154,951,732,283,54,41
40,55,160,883,727,269,49,37
40,55,150,899,690,244,48,40
41,51,159,761,727,271,50,35
43,54,176,829,747,253,50,40
49,61,176,762,710,263,47,42
50,68,188,837,776,289,50,42
53,68,193,784,782,291,52,42
54,78,190,805,747,252,50,42
51,75,174,773,718,257,52,37
51,77,204,809,722,254,56,48
57,103,196,698,683,221,52,48
64,130,213,753,674,215,56,52
66,130,230,750,673,229,59,56
67,132,229,839,678,262,61,58
68,133,208,821,705,260,65,51
67,117,207,814,722,271,66,51
75,108,229,877,681,307,70,53
87,124,240,982,641,332,82,67
95,130,242,866,701,309,88,77
94,127,251,837,690,304,86,77
96,127,247,877,787,336,90,82
64,130,213,753,674,215,56,52
66,130,230,750,673,229,59,56
67,132,229,839,678,262,61,58
68,133,208,821,705,260,65,51
67,117,207,814,722,271,66,51
75,108,229,877,681,307,70,53
87,124,240,982,641,332,82,67
95,130,242,866,701,309,88,77
94,127,251,837,690,304,86,77
96,127,247,877,787,336,90,82
87,113,206,837,817,322,89,81
81,101,179,771,932,308,81,75
75,97,196,778,885,321,81,68
78,109,183,776,893,319,80,68
73,107,176,794,874,298,79,62
72,115,194,758,894,294,72,59
64,114,193,724,805,295,66,49
66,118,189,820,820,294,54,45
63,108,202,862,782,340,51,47
64,115,219,831,684,345,49,47
67,116,237,879,629,351,51,51
68,108,239,852,604,353,50,51
64,102,247,851,579,359,49,50
61,103,227,823,581,316,45,44
60,98,248,843,634,286,49,48
53,84,214,749,610,269,46,43
57,85,214,712,613,266,47,46
56,77,189,623,571,246,49,44
57,76,184,621,590,229,56,48
57,63,128,534,540,346,59,44
67,116,237,879,629,351,51,51
68,108,239,852,604,353,50,51
64,102,247,851,579,359,49,50
61,103,227,823,581,316,45,44
60,98,248,843,634,286,49,48
53,84,214,749,610,269,46,43
57,85,214,712,613,266,47,46
56,77,189,623,571,246,49,44
57,76,184,621,590,229,56,48
57,63,128,534,540,346,59,44
60,68,136,622,607,337,58,42
51,65,138,676,572,323,62,43
48,64,145,654,613,333,59,43
47,64,145,760,568,364,54,40
44,69,168,831,638,290,46,39
51,70,174,802,613,322,56,44
50,72,169,781,675,315,49,43
56,82,185,828,666,294,52,42
56,83,193,816,742,312,52,43
59,77,180,785,669,308,52,44
57,81,187,757,669,278,43,42
60,85,201,734,674,290,54,49
66,86,188,764,722,331,57,56
66,88,189,763,669,299,59,56
69,89,188,787,676,283,57,55
69,89,170,783,689,290,56,53
67,88,174,847,696,275,48,49
75,96,180,879,711,260,49,44
75,100,201,813,716,258,45,43
74,103,206,816,772,246,44,41
57,81,187,757,669,278,43,42
60,85,201,734,674,290,54,49
66,86,188,764,722,331,57,56
66,88,189,763,669,299,59,56
69,89,188,787,676,283,57,55
69,89,170,783,689,290,56,53
67,88,174,847,696,275,48,49
75,96,180,879,711,260,49,44
75,100,201,813,716,258,45,43
74,103,206,816,772,246,44,41
71,97,203,836,810,248,49,41
72,93,178,808,771,268,48,38
61,84,170,706,729,227,41,34
58,84,141,697,740,206,44,32
55,84,135,627,761,241,44,36
53,87,135,552,679,235,38,35
55,91,156,529,705,217,33,34
48,83,153,553,656,223,38,33
52,74,148,543,615,216,33,36
53,71,142,527,502,169,33,36
52,75,201,604,497,183,38,36
47,76,190,583,483,204,39,35
45,74,198,612,492,225,37,36
40,72,204,591,476,225,36,32
33,73,210,578,469,245,35,27
37,66,165,680,503,230,31,28
38,61,171,728,446,223,34,30
43,67,165,666,460,193,36,32
43,66,150,665,476,207,36,33
45,61,142,662,484,197,36,33
52,75,201,604,497,183,38,36
47,76,190,583,483,204,39,35
45,74,198,612,492,225,37,36
40,72,204,591,476,225,36,32
33,73,210,578,469,245,35,27
37,66,165,680,503,230,31,28
38,61,171,728,446,223,34,30
43,67,165,666,460,193,36,32
43,66,150,665,476,207,36,33
45,61,142,662,484,197,36,33
42,63,130,521,462,200,38,36
42,59,121,449,465,212,37,35
52,72,166,588,442,212,38,38
57,81,183,649,457,216,39,40
62,85,197,702,418,221,40,42
61,83,197,717,457,213,37,38
62,89,200,735,514,218,36,40
54,81,168,687,553,230,34,37
51,75,156,615,570,210,34,35
54,71,138,615,602,184,33,35
114,83,137,559,554,173,34,35
278,96,124,548,494,108,36,44
363,109,104,456,426,63,38,65
396,110,107,477,349,58,37,72
417,111,101,448,289,124,42,74
517,115,105,577,326,147,47,96
519,103,102,556,378,159,53,106
549,106,104,564,400,168,56,125
548,112,102,664,428,172,145,128
628,114,108,694,451,174,152,137
54,71,149,1029,765,110,40,40
56,75,158,1150,780,128,43,37
63,92,182,1235,820,129,50,42
72,114,247,1170,667,135,64,54
68,112,255,1143,631,150,64,54
78,128,330,1204,635,177,74,61
87,144,399,1108,658,177,83,71
89,145,401,1003,627,195,95,78
100,154,389,928,637,196,109,92
107,159,399,967,741,182,110,94
97,145,342,918,740,167,107,90
90,134,262,859,712,195,100,85
83,127,264,873,688,188,89,77
68,104,275,995,643,202,62,51
59,99,250,987,602,209,59,47
59,105,288,983,673,201,61,55
58,101,286,1076,732,163,74,59
60,96,286,1131,820,167,72,60
58,94,251,1059,850,206,70,61
65,107,254,1008,828,206,71,62
65,102,211,998,773,213,63,55
72,104,210,947,733,225,66,68
70,106,225,908,732,216,68,68
67,104,218,961,752,172,77,68
59,89,213,1055,820,191,80,68
63,84,208,1075,846,202,81,70
55,85,207,1023,880,192,73,51
55,99,217,1002,800,196,73,47
58,104,255,938,831,197,67,48
57,114,303,861,780,197,76,46
65,102,211,998,773,213,63,55
72,104,210,947,733,225,66,68
70,106,225,908,732,216,68,68
67,104,218,961,752,172,77,68
59,89,213,1055,820,191,80,68
63,84,208,1075,846,202,81,70
55,85,207,1023,880,192,73,51
55,99,217,1002,800,196,73,47
58,104,255,938,831,197,67,48
57,114,303,861,780,197,76,46
58,121,321,884,931,187,88,43
57,120,322,850,923,195,86,46
65,114,303,937,956,189,91,50
63,112,280,1036,923,182,92,48
65,108,237,1065,923,177,79,49
72,111,226,1041,833,169,69,52
74,116,251,1117,860,173,70,53
74,113,268,1206,887,166,64,57
77,116,298,1153,883,165,65,60
82,130,305,1077,913,158,77,67
83,125,302,1066,853,164,80,71
80,118,300,1116,777,170,83,71
78,119,294,921,724,171,79,66
77,119,300,999,740,180,80,64
71,104,338,1152,774,178,74,59
72,114,334,1158,944,180,68,56
81,128,333,1097,1034,185,72,58
89,137,326,1128,1039,205,81,67
92,137,291,997,1038,214,81,71
104,149,290,923,1008,222,78,71
83,125,302,1066,853,164,80,71
80,118,300,1116,777,170,83,71
78,119,294,921,724,171,79,66
77,119,300,999,740,180,80,64
71,104,338,1152,774,178,74,59
72,114,334,1158,944,180,68,56
81,128,333,1097,1034,185,72,58
89,137,326,1128,1039,205,81,67
92,137,291,997,1038,214,81,71
104,149,290,923,1008,222,78,71
103,148,320,958,941,223,81,74
104,150,318,1029,949,224,78,76
95,145,334,1064,948,230,70,69
90,140,333,1141,961,231,69,68
78,126,321,1047,943,232,67,67
80,128,308,1093,851,231,70,68
76,115,298,1024,842,209,64,67
85,113,284,954,897,199,71,72
92,124,317,949,850,199,73,69
91,121,267,972,924,179,75,69
82,108,245,871,937,180,71,61
76,111,231,989,902,183,72,55
67,106,219,1083,863,192,64,45
65,98,203,1141,959,216,59,53
72,104,243,1209,863,224,61,56
72,106,247,1223,905,215,58,57
74,105,256,1133,914,216,63,61
79,108,253,1101,926,195,63,65
76,110,229,992,888,189,64,59
80,114,233,916,942,177,62,58
82,108,245,871,937,180,71,61
76,111,231,989,902,183,72,55
67,106,219,1083,863,192,64,45
65,98,203,1141,959,216,59,53
72,104,243,1209,863,224,61,56
72,106,247,1223,905,215,58,57
74,105,256,1133,914,216,63,61
79,108,253,1101,926,195,63,65
76,110,229,992,888,189,64,59
80,114,233,916,942,177,62,58
83,113,246,915,878,181,65,60
83,115,298,1118,887,183,61,56
80,108,308,1113,876,192,62,52
76,105,297,1119,818,165,67,54
67,104,315,1193,801,190,71,51
64,98,311,1221,808,196,72,50
62,100,284,1045,740,190,70,52
61,106,271,1051,727,176,68,52
59,103,269,1090,756,151,57,47
60,103,230,1025,684,157,51,52
57,103,210,924,626,151,44,50
64,101,171,877,684,165,41,51
65,100,176,867,654,171,45,50
71,103,184,834,685,172,58,59
77,99,166,835,842,147,62,56
82,105,175,837,865,150,63,55
76,98,171,935,790,130,62,53
82,106,208,928,865,128,61,53
77,108,226,895,840,140,49,43
68,99,238,921,691,142,41,37
57,103,210,924,626,151,44,50
64,101,171,877,684,165,41,51
65,100,176,867,654,171,45,50
71,103,184,834,685,172,58,59
77,99,166,835,842,147,62,56
82,105,175,837,865,150,63,55
76,98,171,935,790,130,62,53
82,106,208,928,865,128,61,53
77,108,226,895,840,140,49,43
68,99,238,921,691,142,41,37
66,94,231,968,694,153,44,39
64,93,243,829,718,154,46,39
63,90,229,781,647,147,48,42
66,91,212,754,593,147,49,45
63,95,196,683,677,137,49,45
64,100,235,685,676,107,47,46
68,103,228,700,669,118,47,48
56,92,204,657,617,153,51,45
63,93,227,674,648,143,52,47
70,96,241,736,609,149,55,49
70,96,219,723,659,156,56,47
69,97,232,776,663,146,56,46
75,111,269,959,682,136,49,52
69,111,247,957,740,152,47,51
61,101,241,989,699,176,44,48
53,97,238,958,733,173,45,48
53,93,230,977,736,184,42,46
47,81,182,808,747,167,42,41
43,75,195,843,648,173,46,43
45,73,209,864,668,175,53,43
70,96,219,723,659,156,56,47
69,97,232,776,663,146,56,46
75,111,269,959,682,136,49,52
69,111,247,957,740,152,47,51
61,101,241,989,699,176,44,48
53,97,238,958,733,173,45,48
53,93,230,977,736,184,42,46
47,81,182,808,747,167,42,41
43,75,195,843,648,173,46,43
45,73,209,864,668,175,53,43
52,70,204,902,602,171,51,42
55,72,196,821,627,176,53,42
55,66,214,870,640,193,52,38
60,71,205,951,659,184,51,35
65,77,195,857,656,154,43,39
65,91,214,926,640,171,46,44
63,96,226,1021,570,163,45,45
62,98,223,977,553,171,47,47
56,92,221,876,538,156,44,46
55,100,216,828,534,161,51,47
51,87,213,823,505,151,52,46
54,79,194,768,546,154,50,47
53,73,184,911,634,142,49,45
59,76,180,910,676,146,52,48
59,65,202,981,659,154,45,43
58,66,179,960,652,146,38,39
58,68,182,917,654,140,38,38
63,87,197,856,616,143,43,39
71,98,233,863,662,142,50,47
67,95,202,830,639,142,51,47
51,87,213,823,505,151,52,46
54,79,194,768,546,154,50,47
53,73,184,911,634,142,49,45
59,76,180,910,676,146,52,48
59,65,202,981,659,154,45,43
58,66,179,960,652,146,38,39
58,68,182,917,654,140,38,38
63,87,197,856,616,143,43,39
71,98,233,863,662,142,50,47
67,95,202,830,639,142,51,47
73,99,238,839,776,151,55,51
71,97,241,828,749,162,57,51
68,87,233,780,689,162,54,51
59,81,201,750,606,159,47,47
61,80,203,777,629,149,48,47
66,90,171,713,457,162,46,46
70,94,163,771,554,160,46,53
70,97,170,785,618,162,45,56
67,92,176,842,598,161,47,52
71,96,193,834,615,168,47,54
61,87,246,864,660,168,50,54
60,94,265,842,675,161,51,48
57,92,259,907,661,147,51,43
61,100,257,935,709,161,47,41
56,101,241,894,693,172,48,40
54,95,177,861,653,191,46,37
49,85,154,823,558,187,44,36
63,92,195,704,517,180,46,42
59,81,187,621,546,175,52,47
57,78,196,686,566,151,50,44
61,87,246,864,660,168,50,54
60,94,265,842,675,161,51,48
57,92,259,907,661,147,51,43
61,100,257,935,709,161,47,41
56,101,241,894,693,172,48,40
54,95,177,861,653,191,46,37
49,85,154,823,558,187,44,36
63,92,195,704,517,180,46,42
59,81,187,621,546,175,52,47
57,78,196,686,566,151,50,44
57,84,207,708,629,120,46,41
62,86,210,796,644,116,44,43
56,73,161,816,640,130,46,37
58,77,182,863,655,130,47,40
64,88,194,844,632,133,46,45
62,86,197,875,563,116,48,46
59,82,190,833,568,114,52,45
54,85,213,896,563,113,51,46
61,89,206,858,466,123,50,45
61,83,195,910,438,141,51,43
64,89,197,897,495,142,50,46
64,101,217,982,515,164,47,44
60,102,212,896,518,157,42,42
54,97,207,902,581,147,34,38
48,91,210,835,614,128,34,36
52,96,207,790,607,135,37,34
53,86,190,730,568,191,37,35
61,86,188,783,575,193,39,35
65,94,211,841,555,197,48,40
69,96,211,840,540,202,52,44
64,89,197,897,495,142,50,46
64,101,217,982,515,164,47,44
60,102,212,896,518,157,42,42
54,97,207,902,581,147,34,38
48,91,210,835,614,128,34,36
52,96,207,790,607,135,37,34
53,86,190,730,568,191,37,35
61,86,188,783,575,193,39,35
65,94,211,841,555,197,48,40
69,96,211,840,540,202,52,44
63,82,191,916,510,207,49,42
65,83,204,939,544,145,52,47
61,79,201,898,590,137,50,50
64,74,182,816,666,156,44,50
57,71,192,821,683,156,40,49
63,86,194,691,680,141,41,51
58,84,185,588,692,142,39,45
61,84,192,650,660,152,42,46
63,89,198,755,649,143,43,44
64,89,179,766,635,148,43,43
60,79,185,830,693,148,43,41
73,95,191,852,656,139,45,43
68,94,173,919,684,132,45,42
63,89,147,845,640,117,46,39
62,87,152,869,635,123,46,39
60,85,154,887,588,129,46,38
46,66,153,883,612,128,42,37
49,73,170,780,678,151,42,37
52,78,204,852,710,166,39,37
54,91,213,761,747,153,38,38
60,79,185,830,693,148,43,41
73,95,191,852,656,139,45,43
68,94,173,919,684,132,45,42
63,89,147,845,640,117,46,39
62,87,152,869,635,123,46,39
60,85,154,887,588,129,46,38
46,66,153,883,612,128,42,37
49,73,170,780,678,151,42,37
52,78,204,852,710,166,39,37
54,91,213,761,747,153,38,38
53,91,212,700,793,165,36,38
52,90,209,710,773,184,39,39
51,86,194,678,681,166,36,37
45,83,179,599,592,150,39,37
43,65,168,656,523,147,37,34
47,68,162,747,543,128,39,35
49,73,156,723,634,123,39,34
47,71,154,763,684,120,40,37
43,65,145,752,718,112,39,36
44,74,163,827,738,112,40,39
54,87,176,793,709,148,40,42
59,99,187,918,651,160,40,42
59,100,187,937,578,158,41,39
63,103,184,922,538,164,39,43
63,97,198,903,612,177,39,42
55,85,191,968,564,156,42,42
51,72,201,915,536,141,40,43
52,79,234,920,558,147,38,41
49,77,247,929,579,151,40,37
50,84,230,913,504,154,45,41
54,87,176,793,709,148,40,42
59,99,187,918,651,160,40,42
59,100,187,937,578,158,41,39
63,103,184,922,538,164,39,43
63,97,198,903,612,177,39,42
55,85,191,968,564,156,42,42
51,72,201,915,536,141,40,43
52,79,234,920,558,147,38,41
49,77,247,929,579,151,40,37
50,84,230,913,504,154,45,41
45,82,236,933,493,149,46,39
57,92,222,907,545,142,50,44
57,89,201,919,635,143,51,47
57,94,179,926,610,153,53,47
63,98,188,877,601,140,49,45
67,106,180,715,624,153,50,49
54,99,199,718,652,180,49,44
53,99,199,691,532,213,49,44
51,94,222,690,534,207,48,44
46,88,215,735,513,201,47,42
45,80,213,733,509,189,41,35
49,76,188,703,454,161,42,37
46,69,172,763,475,115,39,32
50,81,196,837,581,121,36,36
48,76,183,816,593,124,40,36
44,74,177,899,560,119,40,38
44,74,182,935,586,120,39,38
51,76,180,874,576,106,42,40
56,59,131,873,482,110,42,38
62,76,156,855,508,124,43,39
45,80,213,733,509,189,41,35
49,76,188,703,454,161,42,37
46,69,172,763,475,115,39,32
50,81,196,837,581,121,36,36
48,76,183,816,593,124,40,36
44,74,177,899,560,119,40,38
44,74,182,935,586,120,39,38
51,76,180,874,576,106,42,40
56,59,131,873,482,110,42,38
62,76,156,855,508,124,43,39
63,79,188,820,540,132,45,41
60,77,210,757,515,131,42,38
56,77,210,742,616,136,40,37
54,86,239,684,637,124,41,40
60,84,239,747,618,114,36,39
60,81,228,725,635,125,36,37
61,89,228,745,608,129,38,37
70,109,245,721,563,135,44,44
72,108,232,866,530,153,45,40
67,102,228,807,636,156,45,43
68,102,223,903,571,145,46,42
67,106,228,924,580,141,47,43
60,92,225,956,613,136,41,42
54,87,214,855,701,131,39,42
56,86,206,890,585,121,37,39
166,87,200,773,618,119,34,44
457,125,165,682,587,108,50,101
495,126,138,621,472,103,52,113
499,133,147,604,377,94,56,115
507,133,143,623,441,111,57,116
68,102,223,903,571,145,46,42
67,106,228,924,580,141,47,43
60,92,225,956,613,136,41,42
54,87,214,855,701,131,39,42
56,86,206,890,585,121,37,39
166,87,200,773,618,119,34,44
457,125,165,682,587,108,50,101
495,126,138,621,472,103,52,113
499,133,147,604,377,94,56,115
507,133,143,623,441,111,57,116
494,133,140,643,418,131,56,116
271,89,149,666,462,141,41,77
201,82,154,670,487,153,39,56
206,80,137,676,474,139,33,53
229,90,137,697,443,127,29,53
287,91,139,650,447,103,30,56
282,90,130,636,411,99,30,51
314,88,124,647,379,89,32,63
364,80,103,562,315,85,33,66
354,70,99,431,280,84,33,65
323,71,92,426,326,105,35,63
344,69,78,405,346,126,34,63
350,78,93,378,376,124,32,52
306,73,91,330,417,126,31,48
315,73,83,368,412,130,34,50
301,71,80,418,356,126,36,51
321,71,99,551,419,105,35,58
325,59,90,641,407,127,35,64
328,69,90,634,370,126,35,67
304,77,87,611,370,123,34,68
139,36,60,312,270,30,25,39
129,35,57,296,260,30,25,39
138,40,62,307,271,30,26,40
129,41,62,315,267,33,26,40
128,44,75,320,236,39,25,38
125,48,80,358,285,42,25,36
122,53,112,474,349,46,25,35
69,53,122,557,399,49,26,32
59,61,136,605,414,50,27,30
54,64,130,583,406,50,29,32
93,69,134,587,429,52,29,33
93,69,126,543,400,49,31,33
95,72,133,518,384,46,32,34
96,73,135,582,489,48,35,40
99,69,135,702,565,44,36,39
68,71,148,846,604,44,37,45
66,80,157,893,631,51,40,51
64,79,165,921,645,78,42,53
68,81,175,918,632,79,44,55
64,96,232,975,659,83,48,58
66,127,302,1032,721,100,55,60
67,128,325,1051,809,103,65,58
67,130,328,1084,941,98,65,59
75,161,401,1231,1039,123,71,62
79,162,394,1247,1129,147,72,60
75,154,388,1309,1169,162,68,57
78,166,396,1345,1184,202,59,60
81,169,412,1382,1208,216,64,67
91,166,406,1360,1194,228,67,72
110,189,453,1309,1126,280,87,81
66,127,302,1032,721,100,55,60
67,128,325,1051,809,103,65,58
67,130,328,1084,941,98,65,59
75,161,401,1231,1039,123,71,62
79,162,394,1247,1129,147,72,60
75,154,388,1309,1169,162,68,57
78,166,396,1345,1184,202,59,60
81,169,412,1382,1208,216,64,67
91,166,406,1360,1194,228,67,72
110,189,453,1309,1126,280,87,81
120,200,461,1183,1133,301,103,89
126,203,461,1114,1143,296,110,95
125,205,447,1075,1111,319,112,91
120,202,445,1046,1101,332,109,89
102,179,378,1111,1122,301,95,85
89,157,362,1144,1045,278,86,78
84,153,379,1309,1120,269,91,84
84,158,410,1328,1111,232,86,85
76,136,360,1283,1063,196,88,83
110,178,402,1209,1084,214,102,106
116,173,364,1202,1108,223,98,107
117,162,319,1006,1103,227,92,98
118,159,300,1022,1072,233,92,97
118,166,288,1024,1064,228,87,96
90,133,273,1005,1036,201,70,72
95,145,294,998,1005,195,73,74
87,145,301,1044,892,189,64,70
83,138,269,958,900,177,62,68
81,137,292,943,873,177,65,67
79,119,245,912,866,172,65,64
116,173,364,1202,1108,223,98,107
117,162,319,1006,1103,227,92,98
118,159,300,1022,1072,233,92,97
118,166,288,1024,1064,228,87,96
90,133,273,1005,1036,201,70,72
95,145,294,998,1005,195,73,74
87,145,301,1044,892,189,64,70
83,138,269,958,900,177,62,68
81,137,292,943,873,177,65,67
79,119,245,912,866,172,65,64
63,112,229,967,965,160,69,62
67,118,245,937,914,140,79,72
79,122,257,1088,920,169,82,80
86,123,234,1123,987,220,94,85
89,129,244,1140,981,207,92,84
89,125,261,1116,1013,203,85,80
94,139,254,1158,1084,228,79,76
89,146,267,1063,1123,238,81,76
82,143,267,1061,1160,204,65,71
86,146,307,1129,1167,199,70,77
95,158,320,1059,1124,202,75,83
97,144,348,1070,1164,187,77,88
97,142,340,1063,1102,146,82,82
92,136,343,1082,1066,138,84,79
83,136,316,1064,1058,156,78,70
73,116,284,1104,981,150,73,59
70,125,282,1088,900,139,65,45
69,124,297,1124,856,165,58,42
71,124,301,1020,787,163,59,46
73,111,283,983,685,154,58,46
95,158,320,1059,1124,202,75,83
97,144,348,1070,1164,187,77,88
97,142,340,1063,1102,146,82,82
92,136,343,1082,1066,138,84,79
83,136,316,1064,1058,156,78,70
73,116,284,1104,981,150,73,59
70,125,282,1088,900,139,65,45
69,124,297,1124,856,165,58,42
71,124,301,1020,787,163,59,46
73,111,283,983,685,154,58,46
69,112,286,928,743,157,65,50
61,93,243,891,711,169,64,51
62,75,209,841,709,164,66,54
62,75,197,782,768,167,60,50
61,79,233,749,816,165,61,52
61,77,223,705,768,175,57,46
63,87,227,678,777,167,59,50
61,100,287,714,771,147,54,48
64,101,299,789,758,157,60,51
64,98,291,847,738,186,63,52
64,102,296,921,717,184,58,53
60,97,298,941,663,179,57,51
57,81,244,865,662,184,54,50
55,86,233,954,621,171,54,48
53,88,216,958,741,153,54,47
60,95,225,908,746,147,59,50
63,101,223,917,776,162,59,49
66,112,229,898,792,168,63,51
66,115,219,849,840,169,61,54
65,119,225,830,707,151,56,52
64,102,296,921,717,184,58,53
60,97,298,941,663,179,57,51
57,81,244,865,662,184,54,50
55,86,233,954,621,171,54,48
53,88,216,958,741,153,54,47
60,95,225,908,746,147,59,50
63,101,223,917,776,162,59,49
66,112,229,898,792,168,63,51
66,115,219,849,840,169,61,54
65,119,225,830,707,151,56,52
64,117,220,860,717,165,54,59
63,108,208,842,706,163,67,62
58,99,188,846,694,165,66,57
59,91,206,793,706,156,66,55
62,90,225,754,799,161,66,54
58,83,211,748,785,154,63,45
55,80,207,808,791,135,50,40
57,80,225,793,789,125,43,40
57,82,225,854,806,137,41,41
61,87,207,919,785,167,40,43
63,93,243,906,827,157,41,43
63,97,262,805,864,157,41,40
61,96,267,898,895,177,44,42
63,106,275,848,934,178,46,49
59,99,269,848,941,162,51,48
58,110,248,833,881,158,54,50
56,105,232,881,889,203,52,49
58,107,220,815,914,194,57,54
52,96,203,848,834,208,56,49
47,93,208,860,794,199,52,48
63,93,243,906,827,157,41,43
63,97,262,805,864,157,41,40
61,96,267,898,895,177,44,42
63,106,275,848,934,178,46,49
59,99,269,848,941,162,51,48
58,110,248,833,881,158,54,50
56,105,232,881,889,203,52,49
58,107,220,815,914,194,57,54
52,96,203,848,834,208,56,49
47,93,208,860,794,199,52,48
53,81,190,815,809,206,52,45
62,92,201,777,744,173,52,48
71,102,218,772,685,168,47,46
79,104,226,764,738,168,49,49
80,104,226,779,714,169,52,51
78,95,236,853,756,163,47,53
72,86,225,875,776,170,49,54
70,82,196,876,790,169,50,52
66,93,210,840,731,178,47,50
66,93,230,777,806,186,47,49
64,98,231,695,766,189,46,48
64,99,232,735,754,171,48,47
55,86,230,697,789,163,48,44
52,78,205,691,736,168,53,46
52,79,177,676,734,185,49,44
53,78,174,774,766,181,54,45
56,73,164,767,736,182,55,45
70,105,211,820,711,203,53,49
69,103,199,805,721,175,54,47
69,107,209,890,764,145,55,51
64,98,231,695,766,189,46,48
64,99,232,735,754,171,48,47
55,86,230,697,789,163,48,44
52,78,205,691,736,168,53,46
52,79,177,676,734,185,49,44
53,78,174,774,766,181,54,45
56,73,164,767,736,182,55,45
70,105,211,820,711,203,53,49
69,103,199,805,721,175,54,47
69,107,209,890,764,145,55,51
69,108,203,908,789,156,52,48
66,116,198,888,794,177,48,45
52,97,189,874,768,153,46,39
54,98,217,941,768,169,46,38
53,94,214,821,658,170,46,35
54,96,236,808,568,175,48,36
58,91,250,839,621,163,50,44
61,94,268,945,609,156,51,46
69,108,264,951,602,130,49,51
67,105,269,1002,597,141,49,52
65,104,260,946,641,129,45,54
61,110,256,981,711,126,45,49
58,103,227,881,680,129,42,47
51,83,215,850,659,131,45,44
52,81,202,895,702,126,49,44
52,77,196,912,681,126,50,40
58,87,227,888,590,127,61,49
58,90,209,883,660,136,65,50
56,97,204,913,746,160,66,50
57,107,219,870,702,148,72,51
65,104,260,946,641,129,45,54
61,110,256,981,711,126,45,49
58,103,227,881,680,129,42,47
51,83,215,850,659,131,45,44
52,81,202,895,702,126,49,44
52,77,196,912,681,126,50,40
58,87,227,888,590,127,61,49
58,90,209,883,660,136,65,50
56,97,204,913,746,160,66,50
57,107,219,870,702,148,72,51
65,119,216,828,676,150,73,52
60,102,174,813,684,149,63,45
62,106,177,786,672,152,63,47
60,98,180,713,588,136,59,44
59,90,160,701,581,137,46,43
48,71,147,700,604,142,49,42
49,74,180,729,536,150,53,48
48,79,196,736,483,142,55,50
53,81,189,708,488,139,54,51
55,85,186,646,524,158,57,52
54,86,199,662,565,158,57,52
56,91,181,617,602,151,51,47
56,84,180,687,658,156,47,43
52,87,188,730,680,153,51,42
60,94,200,816,699,142,48,41
67,97,194,810,688,128,49,43
63,92,190,757,671,122,51,40
62,90,181,681,677,115,54,40
68,93,186,630,631,116,49,41
56,84,186,533,577,101,46,38
54,86,199,662,565,158,57,52
56,91,181,617,602,151,51,47
56,84,180,687,658,156,47,43
52,87,188,730,680,153,51,42
60,94,200,816,699,142,48,41
67,97,194,810,688,128,49,43
63,92,190,757,671,122,51,40
62,90,181,681,677,115,54,40
68,93,186,630,631,116,49,41
56,84,186,533,577,101,46,38
53,83,183,609,649,105,47,36
52,80,175,617,643,123,48,35
54,82,176,761,593,130,44,36
50,75,190,807,658,122,46,39
51,76,182,827,668,127,47,38
53,79,194,787,590,144,41,39
56,81,204,771,601,129,40,39
54,75,190,629,570,121,42,38
50,75,175,732,499,127,40,34
53,74,173,788,524,142,43,36
57,77,184,826,537,137,44,39
55,74,180,849,562,134,46,40
58,78,195,944,598,129,43,43
56,74,188,927,712,131,47,43
54,72,181,867,699,137,45,42
43,71,154,802,672,122,47,38
48,79,149,776,642,128,42,36
48,76,144,701,663,149,45,33
49,80,158,578,572,147,42,33
47,80,161,543,576,148,40,30
57,77,184,826,537,137,44,39
55,74,180,849,562,134,46,40
58,78,195,944,598,129,43,43
56,74,188,927,712,131,47,43
54,72,181,867,699,137,45,42
43,71,154,802,672,122,47,38
48,79,149,776,642,128,42,36
48,76,144,701,663,149,45,33
49,80,158,578,572,147,42,33
47,80,161,543,576,148,40,30
52,74,187,650,575,150,40,34
48,63,192,677,625,141,41,37
42,68,184,667,628,142,43,36
46,63,179,721,655,141,42,36
50,78,192,754,677,130,45,38
51,78,169,736,666,123,46,40
57,83,171,749,620,126,48,39
59,87,178,738,596,109,43,38
63,93,169,717,540,105,45,38
59,81,150,699,514,99,42,35
55,79,152,700,503,120,38,30
52,79,159,710,557,128,36,29
51,76,155,745,627,137,39,29
45,70,167,737,659,142,35,30
48,69,186,806,654,149,36,34
47,67,183,807,666,140,38,36
46,74,187,798,665,143,39,39
46,70,196,768,574,130,38,38
53,80,200,787,531,144,42,41
52,87,195,720,520,155,43,39
55,79,152,700,503,120,38,30
52,79,159,710,557,128,36,29
51,76,155,745,627,137,39,29
45,70,167,737,659,142,35,30
48,69,186,806,654,149,36,34
47,67,183,807,666,140,38,36
46,74,187,798,665,143,39,39
46,70,196,768,574,130,38,38
53,80,200,787,531,144,42,41
52,87,195,720,520,155,43,39
51,85,200,707,557,158,40,38
55,79,178,670,522,158,41,35
51,76,172,754,515,158,43,37
44,75,165,679,518,149,40,31
45,74,160,676,529,137,41,32
45,77,149,634,494,143,45,32
41,76,156,724,534,134,39,29
46,77,143,624,548,135,39,30
47,73,144,667,601,145,39,34
51,75,147,680,587,142,38,35
54,74,156,657,577,135,35,34
55,80,174,686,509,133,40,35
54,79,181,662,526,128,41,35
57,81,182,693,651,145,43,36
53,73,185,725,661,158,43,37
57,86,190,751,668,154,43,39
55,82,176,690,677,153,45,41
55,84,174,747,691,157,47,40
51,86,173,691,606,144,46,39
51,89,182,743,607,122,45,39
54,74,156,657,577,135,35,34
55,80,174,686,509,133,40,35
54,79,181,662,526,128,41,35
57,81,182,693,651,145,43,36
53,73,185,725,661,158,43,37
57,86,190,751,668,154,43,39
55,82,176,690,677,153,45,41
55,84,174,747,691,157,47,40
51,86,173,691,606,144,46,39
51,89,182,743,607,122,45,39
44,74,176,751,590,117,47,36
44,74,171,730,584,130,45,36
46,73,162,687,578,136,41,38
48,66,155,715,490,121,40,38
48,67,137,662,483,138,42,37
52,77,155,667,503,147,43,39
57,94,215,788,529,136,42,39
59,95,227,798,519,133,45,40
59,95,226,789,542,127,45,38
64,97,228,738,591,104,47,42
61,90,218,713,592,88,45,42
57,79,169,557,553,85,42,40
52,79,162,552,662,139,53,42
73,73,152,546,636,146,52,47
70,64,142,562,652,150,54,48
90,67,147,578,643,160,54,48
239,61,139,556,645,160,54,53
268,57,128,556,504,115,40,52
267,58,122,513,486,111,41,54
277,57,127,467,361,112,34,53
61,90,218,713,592,88,45,42
57,79,169,557,553,85,42,40
52,79,162,552,662,139,53,42
73,73,152,546,636,146,52,47
70,64,142,562,652,150,54,48
90,67,147,578,643,160,54,48
239,61,139,556,645,160,54,53
268,57,128,556,504,115,40,52
267,58,122,513,486,111,41,54
277,57,127,467,361,112,34,53
281,52,119,453,334,98,34,53
238,56,111,443,314,97,38,54
231,75,117,426,280,87,41,62
273,105,114,468,268,76,40,63
365,120,100,479,312,58,39,72
372,122,85,478,385,88,38,73
339,117,88,472,428,101,35,70
351,112,79,450,450,104,34,72
400,93,92,519,454,102,37,75
358,78,96,500,463,103,38,67
356,85,92,490,462,86,38,70
379,95,82,490,454,97,38,72
392,89,93,554,447,118,37,72
321,92,98,509,521,120,32,63
285,92,95,497,482,119,33,73
314,86,96,462,424,113,33,71
326,90,98,455,425,92,33,68
308,96,84,366,439,56,28,58
314,92,79,348,431,52,31,58
307,87,85,415,429,49,29,44
69,113,190,888,545,131,52,40
66,119,185,1038,641,123,54,41
66,122,189,1086,702,155,58,43
64,129,233,1155,792,157,62,42
61,114,207,1142,807,175,66,43
56,94,221,1162,861,182,65,47
57,93,251,1096,873,181,63,50
63,101,285,1176,899,192,70,55
65,103,299,1185,894,190,68,59
71,133,350,1198,1032,202,68,63
83,145,359,1180,1045,224,77,68
85,148,362,1243,1079,249,94,74
98,160,342,1190,1129,251,96,81
99,155,321,1154,1100,253,95,82
95,131,285,1125,978,267,110,81
87,130,320,1169,940,237,108,79
94,132,312,1104,943,210,97,78
84,127,334,1143,895,195,101,74
87,133,347,1236,912,198,106,75
104,151,375,1295,1010,225,88,82
106,148,335,1268,1028,243,84,79
96,148,331,1319,990,248,84,74
91,135,321,1306,1015,245,69,70
95,141,313,1175,1130,239,64,72
82,120,263,1107,1073,171,77,67
82,125,277,1153,1086,146,79,66
89,137,279,1093,1038,133,76,68
88,137,311,1088,936,120,77,66
84,134,291,1080,729,138,74,61
77,131,304,1160,728,149,62,52
106,148,335,1268,1028,243,84,79
96,148,331,1319,990,248,84,74
91,135,321,1306,1015,245,69,70
95,141,313,1175,1130,239,64,72
82,120,263,1107,1073,171,77,67
82,125,277,1153,1086,146,79,66
89,137,279,1093,1038,133,76,68
88,137,311,1088,936,120,77,66
84,134,291,1080,729,138,74,61
77,131,304,1160,728,149,62,52
77,128,304,1174,704,146,64,57
73,100,285,1139,814,152,64,61
77,108,239,1113,828,160,66,62
68,108,243,1081,817,148,65,60
69,110,246,1069,742,144,63,59
59,103,219,1003,740,141,60,52
51,115,260,995,638,147,59,44
55,123,263,1006,661,135,63,48
58,116,260,1072,730,133,63,50
60,113,237,997,783,124,63,53
70,131,278,1064,836,197,70,62
74,127,255,1157,862,195,72,65
69,118,278,1117,834,195,66,60
66,113,274,1094,813,193,66,60
69,120,296,1149,840,223,67,61
61,102,260,1016,756,162,64,54
61,99,260,898,805,156,60,50
61,91,219,1007,910,172,59,52
66,104,221,969,907,197,62,55
69,106,201,930,840,170,60,51
70,131,278,1064,836,197,70,62
74,127,255,1157,862,195,72,65
69,118,278,1117,834,195,66,60
66,113,274,1094,813,193,66,60
69,120,296,1149,840,223,67,61
61,102,260,1016,756,162,64,54
61,99,260,898,805,156,60,50
61,91,219,1007,910,172,59,52
66,104,221,969,907,197,62,55
69,106,201,930,840,170,60,51
75,103,201,984,889,181,59,56
71,101,186,1023,899,233,60,56
71,119,241,990,819,226,64,56
70,105,237,1012,811,206,70,59
62,98,230,968,826,206,70,57
52,96,244,1036,844,201,63,51
52,97,238,1003,818,159,64,52
50,72,171,927,812,146,62,50
53,75,194,916,783,142,57,44
57,79,205,972,879,159,58,47
61,88,230,946,772,156,60,49
71,100,245,1008,752,132,58,49
70,99,255,1102,761,167,56,48
66,99,246,1145,836,171,50,45
70,101,251,1147,799,159,47,47
70,99,223,1156,853,178,54,47
61,84,229,1092,851,185,53,44
63,98,255,1044,822,154,56,48
62,96,239,978,769,149,62,47
57,92,240,991,698,153,69,46
61,88,230,946,772,156,60,49
71,100,245,1008,752,132,58,49
70,99,255,1102,761,167,56,48
66,99,246,1145,836,171,50,45
70,101,251,1147,799,159,47,47
70,99,223,1156,853,178,54,47
61,84,229,1092,851,185,53,44
63,98,255,1044,822,154,56,48
62,96,239,978,769,149,62,47
57,92,240,991,698,153,69,46
55,86,243,912,682,154,63,45
54,86,233,906,585,165,62,46
53,77,186,814,596,168,58,40
52,79,194,813,567,189,52,42
52,78,180,698,553,179,56,47
56,84,159,698,535,161,58,48
54,83,152,748,594,154,60,49
55,81,161,723,561,208,63,51
56,83,168,789,528,195,64,51
56,88,178,817,544,202,61,46
56,96,199,855,598,205,65,53
70,101,200,795,640,210,64,53
68,101,221,882,715,161,64,57
69,110,245,858,769,156,64,58
71,107,243,840,804,157,60,58
64,95,232,801,737,169,61,51
49,86,242,788,727,159,70,52
50,89,239,774,783,156,67,49
45,71,226,802,790,154,64,43
40,67,216,813,751,195,65,39
56,96,199,855,598,205,65,53
70,101,200,795,640,210,64,53
68,101,221,882,715,161,64,57
69,110,245,858,769,156,64,58
71,107,243,840,804,157,60,58
64,95,232,801,737,169,61,51
49,86,242,788,727,159,70,52
50,89,239,774,783,156,67,49
45,71,226,802,790,154,64,43
40,67,216,813,751,195,65,39
41,64,220,800,811,192,58,38
45,71,221,899,818,192,46,33
43,76,211,837,729,197,44,30
50,79,196,786,729,206,43,34
53,83,194,796,792,179,35,38
55,85,187,801,717,165,32,41
54,81,160,733,654,157,39,44
56,76,175,815,639,149,46,46
55,77,177,883,638,182,54,52
51,71,190,891,521,165,52,51
54,79,201,914,652,164,54,52
60,83,205,920,626,175,56,54
61,80,185,843,609,175,54,57
57,79,173,792,543,148,48,50
60,86,169,777,563,140,50,50
62,91,162,803,431,142,50,48
58,90,175,803,530,136,48,44
61,100,187,830,546,134,47,44
67,106,193,836,595,110,46,46
72,123,207,848,580,134,45,45
54,79,201,914,652,164,54,52
60,83,205,920,626,175,56,54
61,80,185,843,609,175,54,57
57,79,173,792,543,148,48,50
60,86,169,777,563,140,50,50
62,91,162,803,431,142,50,48
58,90,175,803,530,136,48,44
61,100,187,830,546,134,47,44
67,106,193,836,595,110,46,46
72,123,207,848,580,134,45,45
69,111,200,771,668,189,46,45
69,112,189,756,634,187,42,45
62,104,169,748,719,197,40,39
57,99,172,690,720,198,43,40
56,76,141,697,783,216,49,41
55,82,148,723,720,168,46,38
53,85,170,748,734,168,48,39
52,80,169,769,640,157,49,40
51,77,165,812,588,163,46,37
42,76,176,740,503,122,44,41
39,78,172,813,520,137,44,42
38,75,146,726,503,137,43,40
43,80,145,701,540,135,43,43
44,78,132,661,595,127,42,42
42,71,127,766,606,128,39,34
46,73,117,709,599,115,46,39
48,73,133,782,611,181,48,39
48,80,129,810,631,187,47,38
49,84,142,890,578,191,48,43
49,83,136,832,632,183,46,43
39,78,172,813,520,137,44,42
38,75,146,726,503,137,43,40
43,80,145,701,540,135,43,43
44,78,132,661,595,127,42,42
42,71,127,766,606,128,39,34
46,73,117,709,599,115,46,39
48,73,133,782,611,181,48,39
48,80,129,810,631,187,47,38
49,84,142,890,578,191,48,43
49,83,136,832,632,183,46,43
52,84,177,916,616,185,39,42
56,85,173,942,556,118,38,44
57,83,196,965,511,138,41,44
57,87,214,931,555,142,46,43
61,89,219,913,515,152,48,44
54,78,198,870,579,163,51,43
49,78,209,875,627,165,48,42
46,71,194,885,630,143,48,40
49,73,172,878,658,168,46,38
51,76,183,897,651,171,49,38
53,80,180,825,613,187,48,36
62,100,185,820,640,199,53,39
61,102,183,750,648,216,51,40
65,107,193,803,641,186,50,49
63,105,180,811,613,183,45,49
73,109,181,842,614,152,44,52
72,94,166,783,620,136,40,51
71,91,162,774,625,103,39,52
63,74,160,767,603,141,41,45
66,80,165,729,612,146,44,44
53,80,180,825,613,187,48,36
62,100,185,820,640,199,53,39
61,102,183,750,648,216,51,40
65,107,193,803,641,186,50,49
63,105,180,811,613,183,45,49
73,109,181,842,614,152,44,52
72,94,166,783,620,136,40,51
71,91,162,774,625,103,39,52
63,74,160,767,603,141,41,45
66,80,165,729,612,146,44,44
55,71,154,710,599,154,45,40
50,65,150,773,609,170,47,39
50,67,172,781,574,183,52,37
54,77,176,823,567,174,50,41
52,82,175,920,562,171,50,41
59,84,186,958,566,167,51,44
59,89,191,937,483,157,47,44
69,88,174,933,475,149,46,46
67,82,165,815,525,132,42,43
68,71,158,768,547,138,39,40
61,67,148,677,617,137,40,39
61,62,156,645,623,127,40,39
52,67,186,657,638,118,39,36
55,69,179,675,595,124,42,38
54,71,179,581,605,131,44,41
60,80,182,634,545,135,41,40
65,102,224,683,583,132,43,40
63,98,209,742,605,144,42,37
62,104,242,810,621,158,42,38
67,104,246,796,632,167,41,39
61,67,148,677,617,137,40,39
61,62,156,645,623,127,40,39
52,67,186,657,638,118,39,36
55,69,179,675,595,124,42,38
54,71,179,581,605,131,44,41
60,80,182,634,545,135,41,40
65,102,224,683,583,132,43,40
63,98,209,742,605,144,42,37
62,104,242,810,621,158,42,38
67,104,246,796,632,167,41,39
65,103,252,852,644,171,42,41
58,89,219,830,634,186,42,42
63,102,228,898,634,210,38,43
60,95,193,906,605,204,36,41
54,99,199,1031,582,183,35,39
49,92,184,1011,541,191,34,35
53,88,174,973,549,198,33,34
53,82,160,902,522,167,43,39
54,86,161,923,537,164,42,40
50,80,143,889,637,169,44,37
58,88,155,888,677,173,45,43
52,85,137,893,639,156,44,41
47,76,130,841,745,163,39,37
46,78,128,820,732,169,39,36
55,89,147,794,653,174,40,40
47,89,143,743,611,183,41,33
48,89,152,823,700,180,45,34
52,89,153,839,572,171,46,34
53,84,154,760,599,174,48,37
45,70,137,655,596,165,47,34
58,88,155,888,677,173,45,43
52,85,137,893,639,156,44,41
47,76,130,841,745,163,39,37
46,78,128,820,732,169,39,36
55,89,147,794,653,174,40,40
47,89,143,743,611,183,41,33
48,89,152,823,700,180,45,34
52,89,153,839,572,171,46,34
53,84,154,760,599,174,48,37
45,70,137,655,596,165,47,34
48,66,130,625,586,141,45,37
47,68,129,557,462,137,42,37
46,81,168,661,462,142,43,38
42,83,172,792,438,130,40,37
44,91,203,883,455,126,41,38
44,93,204,921,527,116,43,37
50,99,207,971,607,122,43,38
48,95,192,957,638,121,43,38
56,102,202,939,613,115,43,40
59,97,181,894,646,128,40,38
57,95,189,892,602,131,39,39
55,90,198,851,619,142,39,42
54,85,195,845,630,156,36,39
46,74,187,763,674,160,34,38
43,76,177,740,639,185,36,41
44,80,173,854,710,195,36,39
40,71,159,842,632,188,37,35
41,75,173,812,600,169,46,35
42,72,168,823,643,183,45,36
44,69,184,960,647,155,48,34
57,95,189,892,602,131,39,39
55,90,198,851,619,142,39,42
54,85,195,845,630,156,36,39
46,74,187,763,674,160,34,38
43,76,177,740,639,185,36,41
44,80,173,854,710,195,36,39
40,71,159,842,632,188,37,35
41,75,173,812,600,169,46,35
42,72,168,823,643,183,45,36
44,69,184,960,647,155,48,34
42,72,189,899,604,184,50,34
42,74,194,866,594,183,46,36
46,77,188,908,639,192,40,38
46,82,191,963,588,186,41,39
47,84,181,820,604,197,36,42
52,90,227,887,561,165,33,41
53,92,228,951,582,162,43,41
53,88,219,908,535,173,45,40
56,91,229,835,579,170,49,42
53,93,245,908,540,165,51,38
51,92,198,811,552,152,51,39
56,94,198,838,570,171,45,43
52,98,192,817,583,160,43,43
57,101,192,848,523,155,42,45
64,108,169,784,510,149,45,47
67,99,177,774,554,159,50,48
66,96,182,706,519,154,48,49
72,95,183,688,512,147,46,47
70,89,175,645,509,163,48,46
69,81,195,746,489,176,50,46
51,92,198,811,552,152,51,39
56,94,198,838,570,171,45,43
52,98,192,817,583,160,43,43
57,101,192,848,523,155,42,45
64,108,169,784,510,149,45,47
67,99,177,774,554,159,50,48
66,96,182,706,519,154,48,49
72,95,183,688,512,147,46,47
70,89,175,645,509,163,48,46
69,81,195,746,489,176,50,46
68,82,183,724,397,169,46,43
67,83,180,770,474,151,46,38
61,76,178,819,452,146,48,40
68,74,166,771,433,118,43,34
244,72,130,646,424,71,35,39
293,69,122,614,439,68,33,47
300,70,99,562,554,84,40,51
325,86,138,544,566,86,40,52
339,89,163,579,558,90,38,50
339,86,174,617,565,94,54,61
373,118,180,629,557,104,89,74
402,123,177,557,321,100,181,108
408,114,136,464,313,109,206,120
432,115,127,534,392,117,209,133
374,114,137,531,442,126,211,129
359,86,144,619,436,133,204,125
446,90,149,638,487,138,144,102
460,89,155,691,494,131,124,96
438,88,133,642,436,126,121,86
528,95,114,612,405,128,113,95
373,118,180,629,557,104,89,74
402,123,177,557,321,100,181,108
408,114,136,464,313,109,206,120
432,115,127,534,392,117,209,133
374,114,137,531,442,126,211,129
359,86,144,619,436,133,204,125
446,90,149,638,487,138,144,102
460,89,155,691,494,131,124,96
438,88,133,642,436,126,121,86
528,95,114,612,405,128,113,95
514,95,103,581,434,111,107,94
440,81,94,556,415,97,86,94
466,96,86,496,369,95,61,90
485,101,89,495,361,104,82,94
429,102,86,475,410,91,108,97
424,98,83,451,434,100,110,97
464,111,84,455,411,100,112,106
451,107,85,433,418,98,108,104
465,114,87,371,420,82,95,109
449,110,78,358,350,94,60,99
449,119,72,270,319,79,55,95
384,107,77,233,343,79,49,78
343,98,77,242,327,78,47,77
313,87,71,250,301,73,37,61
286,81,70,227,280,49,35,55
276,69,60,219,288,53,32,58
300,77,60,243,270,47,31,64
281,74,59,248,292,48,32,60
241,58,59,211,292,47,33,52
217,56,59,209,307,44,30,50
40,59,121,684,649,157,35,36
46,73,154,757,605,139,37,42
47,75,158,797,637,140,43,44
46,82,175,856,627,161,46,44
48,87,214,1025,672,163,52,48
59,104,250,1127,798,165,80,68
58,105,261,1080,977,166,85,71
62,103,276,1157,1041,212,85,74
76,136,335,1121,1104,217,88,78
81,137,317,1053,1085,240,90,78
88,147,313,1176,1093,246,78,70
92,157,311,1183,1003,248,77,70
91,161,317,1159,1027,233,84,67
92,144,258,1166,1049,231,88,69
95,152,279,1150,1132,267,89,74
89,144,289,1051,1195,284,86,76
85,132,285,1114,1282,294,85,73
87,131,272,1094,1265,284,85,76
76,125,283,1138,1223,283,84,76
74,118,283,1172,1213,259,87,73
73,117,275,1130,1139,235,83,68
79,115,270,1185,1091,218,82,71
75,114,293,1301,1067,230,75,66
74,107,284,1329,1059,221,69,64
75,106,260,1283,991,205,60,61
83,119,286,1332,1039,234,66,63
78,121,306,1334,996,235,62,59
80,130,312,1244,994,240,63,61
78,125,305,1289,1034,276,65,58
77,129,314,1240,1057,265,70,67
73,117,275,1130,1139,235,83,68
79,115,270,1185,1091,218,82,71
75,114,293,1301,1067,230,75,66
74,107,284,1329,1059,221,69,64
75,106,260,1283,991,205,60,61
83,119,286,1332,1039,234,66,63
78,121,306,1334,996,235,62,59
80,130,312,1244,994,240,63,61
78,125,305,1289,1034,276,65,58
77,129,314,1240,1057,265,70,67
80,121,286,1157,970,229,75,68
91,143,293,1091,944,225,82,82
93,138,265,1013,875,205,88,87
96,145,264,957,891,176,90,87
94,143,262,1038,888,167,88,80
96,146,270,1032,897,180,78,80
89,129,260,1098,889,189,74,67
93,129,275,1124,921,188,69,69
93,129,304,1184,935,186,70,70
95,126,308,1244,913,195,82,80
99,129,319,1211,967,183,102,101
100,134,320,1245,1050,200,103,103
94,131,308,1309,1126,209,104,101
94,129,283,1157,1118,209,100,101
89,135,287,1074,1097,202,93,95
64,109,250,1136,1086,211,72,64
55,93,219,1090,1131,206,69,55
70,122,301,1144,1175,192,84,64
70,119,320,1169,1099,194,86,64
70,115,325,1254,1245,231,88,65
99,129,319,1211,967,183,102,101
100,134,320,1245,1050,200,103,103
94,131,308,1309,1126,209,104,101
94,129,283,1157,1118,209,100,101
89,135,287,1074,1097,202,93,95
64,109,250,1136,1086,211,72,64
55,93,219,1090,1131,206,69,55
70,122,301,1144,1175,192,84,64
70,119,320,1169,1099,194,86,64
70,115,325,1254,1245,231,88,65
74,117,323,1241,1246,216,90,71
75,121,317,1196,1144,230,92,70
77,130,266,1082,1017,233,77,63
80,142,260,1078,1086,229,78,63
83,144,234,954,987,201,73,64
81,147,233,1003,950,210,73,61
92,152,256,1068,1032,189,77,71
83,125,224,1039,1026,191,73,65
75,110,192,1107,966,178,81,67
70,107,222,1186,955,180,82,64
68,106,233,1149,971,182,82,64
55,93,212,1041,921,180,79,59
50,92,232,1091,944,170,80,60
60,108,256,1078,955,182,79,62
63,104,240,995,934,165,72,59
60,99,240,1068,917,201,74,56
67,104,251,1067,937,198,79,65
77,110,286,1018,927,201,83,72
78,99,286,940,938,190,76,74
76,105,297,932,902,190,93,80
68,106,233,1149,971,182,82,64
55,93,212,1041,921,180,79,59
50,92,232,1091,944,170,80,60
60,108,256,1078,955,182,79,62
63,104,240,995,934,165,72,59
60,99,240,1068,917,201,74,56
67,104,251,1067,937,198,79,65
77,110,286,1018,927,201,83,72
78,99,286,940,938,190,76,74
76,105,297,932,902,190,93,80
92,122,313,798,930,156,95,89
92,119,313,945,968,153,95,82
83,108,278,963,975,173,98,81
78,101,265,1061,1032,169,96,72
78,92,237,1018,1045,170,80,66
62,74,216,1074,982,162,74,56
52,72,196,988,876,184,63,52
46,72,171,999,809,161,53,38
48,88,165,896,663,158,51,41
51,97,200,975,743,184,54,39
49,90,183,894,703,186,51,32
47,94,191,934,699,151,55,32
55,103,198,1003,730,201,60,39
50,88,200,1021,738,216,62,37
48,84,171,991,648,192,59,36
53,90,176,1054,702,180,61,39
56,83,172,977,668,198,57,41
49,72,178,890,643,181,53,38
52,78,179,842,692,161,55,43
47,77,186,812,737,166,56,44
49,90,183,894,703,186,51,32
47,94,191,934,699,151,55,32
55,103,198,1003,730,201,60,39
50,88,200,1021,738,216,62,37
48,84,171,991,648,192,59,36
53,90,176,1054,702,180,61,39
56,83,172,977,668,198,57,41
49,72,178,890,643,181,53,38
52,78,179,842,692,161,55,43
47,77,186,812,737,166,56,44
42,71,185,739,719,186,58,44
41,78,192,776,869,180,64,45
47,80,214,778,886,152,67,48
45,80,212,875,858,153,67,48
45,79,216,860,818,164,67,48
53,82,248,937,863,146,66,53
52,82,254,965,745,164,59,51
54,82,221,932,763,187,66,56
59,83,241,1040,743,188,62,54
61,90,250,1049,722,206,64,55
57,95,216,975,624,212,63,50
62,100,215,921,636,207,66,53
58,100,219,939,555,186,54,47
55,105,232,831,581,196,59,46
58,103,219,816,639,167,55,44
58,98,224,931,675,161,57,43
54,87,213,1000,670,148,58,44
54,82,205,979,692,154,56,41
55,71,161,898,777,158,57,42
57,64,165,1028,859,158,67,49
57,95,216,975,624,212,63,50
62,100,215,921,636,207,66,53
58,100,219,939,555,186,54,47
55,105,232,831,581,196,59,46
58,103,219,816,639,167,55,44
58,98,224,931,675,161,57,43
54,87,213,1000,670,148,58,44
54,82,205,979,692,154,56,41
55,71,161,898,777,158,57,42
57,64,165,1028,859,158,67,49
56,61,163,920,875,169,64,51
55,69,169,850,885,154,66,47
54,72,179,822,947,182,68,49
55,78,209,844,857,175,65,45
49,82,205,672,701,186,56,39
53,87,216,688,667,174,57,42
55,85,211,673,646,200,49,41
55,82,215,786,634,178,46,41
53,70,176,707,672,191,42,42
52,78,230,735,691,179,43,46
53,84,245,793,658,184,41,42
52,93,271,863,699,184,43,45
51,97,265,850,720,192,44,42
55,112,275,904,718,177,47,41
55,106,227,877,743,179,51,43
50,98,199,789,798,173,52,43
50,95,166,725,766,171,53,41
52,95,164,721,674,175,56,45
52,83,146,699,671,175,56,46
49,79,145,757,644,171,55,46
53,84,245,793,658,184,41,42
52,93,271,863,699,184,43,45
51,97,265,850,720,192,44,42
55,112,275,904,718,177,47,41
55,106,227,877,743,179,51,43
50,98,199,789,798,173,52,43
50,95,166,725,766,171,53,41
52,95,164,721,674,175,56,45
52,83,146,699,671,175,56,46
49,79,145,757,644,171,55,46
56,81,150,796,624,170,53,45
56,70,134,765,602,207,54,44
60,73,140,781,630,191,51,42
53,70,154,866,660,191,47,40
55,75,183,840,670,207,46,40
50,77,181,798,662,220,48,41
51,82,195,814,629,178,47,41
54,88,205,769,617,187,55,43
56,85,194,642,583,192,62,47
60,90,175,610,659,178,65,47
60,86,179,708,625,165,64,47
61,88,167,702,732,156,61,48
58,83,161,670,826,144,57,47
57,84,200,759,855,137,48,42
50,74,191,748,792,135,45,38
57,85,194,700,894,140,57,46
54,82,196,712,856,148,59,46
52,75,197,689,848,156,60,49
56,82,179,676,846,162,60,51
57,87,185,745,835,182,57,49
60,86,179,708,625,165,64,47
61,88,167,702,732,156,61,48
58,83,161,670,826,144,57,47
57,84,200,759,855,137,48,42
50,74,191,748,792,135,45,38
57,85,194,700,894,140,57,46
54,82,196,712,856,148,59,46
52,75,197,689,848,156,60,49
56,82,179,676,846,162,60,51
57,87,185,745,835,182,57,49
52,76,174,739,769,188,46,44
57,89,182,712,754,182,45,44
56,93,177,824,663,188,46,45
52,85,163,768,576,192,47,46
53,77,150,735,679,185,48,46
48,76,154,776,725,172,46,42
40,58,154,817,748,175,50,42
54,70,165,789,736,173,56,43
56,69,162,762,765,211,54,43
58,76,171,748,712,199,65,49
61,79,196,750,685,202,66,51
69,88,216,913,655,201,64,50
60,75,206,856,667,214,54,45
60,80,212,903,652,175,54,42
64,84,205,902,677,182,43,40
66,87,185,853,634,177,42,42
60,79,150,676,652,178,39,41
56,81,144,646,643,166,39,41
53,77,142,686,672,170,39,42
44,66,150,739,618,161,39,41
61,79,196,750,685,202,66,51
69,88,216,913,655,201,64,50
60,75,206,856,667,214,54,45
60,80,212,903,652,175,54,42
64,84,205,902,677,182,43,40
66,87,185,853,634,177,42,42
60,79,150,676,652,178,39,41
56,81,144,646,643,166,39,41
53,77,142,686,672,170,39,42
44,66,150,739,618,161,39,41
41,67,145,742,673,172,38,38
41,69,137,719,685,177,36,39
41,70,143,757,716,175,41,38
48,81,171,779,725,162,43,39
57,84,173,809,747,163,40,40
60,81,178,925,738,151,42,40
56,76,182,995,698,137,47,39
60,82,183,980,687,125,47,41
56,74,145,920,644,150,47,39
46,75,143,887,604,158,46,34
43,74,124,800,593,159,46,34
48,82,130,729,633,157,47,37
51,88,153,773,696,166,50,40
52,88,166,853,743,135,48,41
51,84,166,843,748,127,50,41
54,82,169,854,706,126,48,42
50,76,166,870,665,138,46,39
49,61,137,805,611,128,45,33
46,57,128,707,577,165,47,35
47,64,127,688,626,183,46,34
43,74,124,800,593,159,46,34
48,82,130,729,633,157,47,37
51,88,153,773,696,166,50,40
52,88,166,853,743,135,48,41
51,84,166,843,748,127,50,41
54,82,169,854,706,126,48,42
50,76,166,870,665,138,46,39
49,61,137,805,611,128,45,33
46,57,128,707,577,165,47,35
47,64,127,688,626,183,46,34
43,68,132,712,717,196,46,30
44,64,143,628,724,196,42,31
41,66,152,701,684,191,42,33
45,74,146,695,711,171,38,31
43,70,143,717,649,177,37,33
42,65,154,679,565,187,39,34
41,67,150,769,552,200,40,34
39,67,147,730,656,201,35,32
40,68,156,725,616,197,37,33
42,68,158,724,652,179,38,30
42,71,157,656,677,148,37,31
55,85,162,570,692,125,40,42
61,92,153,568,630,134,45,45
64,96,153,555,649,142,43,46
69,100,167,557,619,137,42,50
72,103,183,583,624,152,55,56
69,99,177,618,637,147,54,53
64,90,186,654,654,144,54,52
61,80,189,722,624,145,55,51
63,87,176,798,712,163,58,53
42,71,157,656,677,148,37,31
55,85,162,570,692,125,40,42
61,92,153,568,630,134,45,45
64,96,153,555,649,142,43,46
69,100,167,557,619,137,42,50
72,103,183,583,624,152,55,56
69,99,177,618,637,147,54,53
64,90,186,654,654,144,54,52
61,80,189,722,624,145,55,51
63,87,176,798,712,163,58,53
59,82,154,802,685,161,52,48
59,75,152,781,649,170,51,46
59,77,148,898,605,163,48,45
59,86,147,875,666,164,50,47
51,73,153,821,595,153,46,40
54,76,149,821,703,146,38,37
46,73,151,834,750,136,36,34
50,77,173,687,814,137,37,35
54,75,175,684,768,136,42,40
65,87,167,660,795,140,49,46
65,84,162,676,753,149,51,50
64,85,158,709,734,146,51,51
61,80,147,717,703,161,51,51
57,74,157,738,737,156,48,46
42,65,167,702,711,150,41,38
38,61,173,710,638,145,40,31
42,68,176,727,669,149,41,34
44,68,166,702,689,161,41,30
46,70,159,730,689,160,42,35
50,65,145,743,666,154,46,34
65,84,162,676,753,149,51,50
64,85,158,709,734,146,51,51
61,80,147,717,703,161,51,51
57,74,157,738,737,156,48,46
42,65,167,702,711,150,41,38
38,61,173,710,638,145,40,31
42,68,176,727,669,149,41,34
44,68,166,702,689,161,41,30
46,70,159,730,689,160,42,35
50,65,145,743,666,154,46,34
74,68,137,708,662,148,49,40
79,75,139,693,656,144,50,40
86,78,164,708,589,128,52,41
100,74,150,653,530,113,49,36
134,80,155,642,554,104,44,36
211,79,158,642,589,103,42,36
242,67,153,559,570,103,43,36
275,68,124,539,554,64,38,35
311,86,117,503,553,53,38,42
319,81,104,466,537,61,44,53
329,88,99,425,470,56,43,72
424,113,89,434,471,73,43,82
471,125,80,400,473,79,43,92
458,115,88,398,516,80,46,110
457,114,87,385,509,75,41,110
437,112,87,377,510,106,39,99
349,87,86,381,436,96,37,94
291,67,99,456,484,108,38,84
284,80,120,481,490,122,34,59
282,83,119,570,516,133,37,53
329,88,99,425,470,56,43,72
424,113,89,434,471,73,43,82
471,125,80,400,473,79,43,92
458,115,88,398,516,80,46,110
457,114,87,385,509,75,41,110
437,112,87,377,510,106,39,99
349,87,86,381,436,96,37,94
291,67,99,456,484,108,38,84
284,80,120,481,490,122,34,59
282,83,119,570,516,133,37,53
260,80,121,592,516,111,36,56
241,81,115,587,502,109,35,60
218,81,109,521,416,95,35,61
214,66,78,486,328,84,34,58
195,60,79,406,278,68,33,59
228,58,71,376,267,65,35,58
283,59,67,331,279,93,36,57
278,65,59,307,340,94,34,58
285,70,58,279,331,90,36,60
294,83,85,296,465,89,35,57
274,88,85,294,475,88,35,55
203,88,84,378,473,62,31,49
191,92,88,382,442,57,31,50
228,92,87,389,475,55,34,54
242,88,59,321,321,63,33,65
252,87,62,293,332,75,34,68
261,85,60,226,381,75,35,69
263,73,57,270,378,80,34,67
233,68,54,272,334,77,30,63
279,67,53,272,319,64,28,56
62,112,253,1089,793,175,48,53
69,118,258,1304,813,203,50,62
86,143,306,1340,790,210,61,71
91,158,339,1357,810,214,63,77
91,157,333,1232,859,200,71,78
88,154,341,1230,931,221,67,73
83,157,359,1111,913,318,68,70
68,137,349,1054,958,324,66,65
73,138,360,1094,1081,332,77,67
85,152,392,1189,1114,365,74,73
94,147,363,1203,1074,361,83,74
96,138,351,1174,1058,274,81,71
107,149,326,1208,1037,306,80,76
102,142,295,1245,986,331,71,69
95,132,278,1175,915,329,69,61
96,137,321,1115,921,335,72,68
109,157,358,1126,950,352,80,77
107,152,380,1178,999,328,84,77
108,154,416,1328,1097,341,91,89
111,167,442,1394,1220,328,92,91
105,169,462,1453,1201,346,87,88
109,171,452,1438,1191,330,99,99
109,164,424,1404,1219,344,96,103
109,165,400,1183,1120,311,89,94
112,153,362,1099,1007,291,92,98
118,159,367,1099,1055,255,97,105
104,144,346,1122,1041,253,78,87
97,149,351,1057,1007,240,84,81
109,142,338,1191,1033,249,83,87
107,148,359,1240,1033,244,77,81
105,169,462,1453,1201,346,87,88
109,171,452,1438,1191,330,99,99
109,164,424,1404,1219,344,96,103
109,165,400,1183,1120,311,89,94
112,153,362,1099,1007,291,92,98
118,159,367,1099,1055,255,97,105
104,144,346,1122,1041,253,78,87
97,149,351,1057,1007,240,84,81
109,142,338,1191,1033,249,83,87
107,148,359,1240,1033,244,77,81
95,130,302,1209,967,256,73,71
90,120,280,1126,988,245,75,68
88,124,294,1136,941,221,66,65
67,114,280,1021,825,199,71,59
54,97,247,929,840,206,70,56
54,101,233,802,878,187,65,50
61,135,328,852,873,185,64,52
60,137,353,967,920,205,64,50
60,144,350,992,1052,214,60,47
59,149,372,1057,1023,221,61,46
62,141,370,1118,1030,227,64,49
75,126,317,1134,1015,213,60,50
77,127,291,1061,1011,190,68,50
79,122,288,1008,894,158,70,50
86,126,262,972,962,175,76,56
92,137,271,972,959,182,75,59
78,125,273,1048,958,212,76,56
83,113,265,1089,970,229,70,63
81,119,286,1055,953,231,66,60
75,117,303,1146,912,201,63,61
62,141,370,1118,1030,227,64,49
75,126,317,1134,1015,213,60,50
77,127,291,1061,1011,190,68,50
79,122,288,1008,894,158,70,50
86,126,262,972,962,175,76,56
92,137,271,972,959,182,75,59
78,125,273,1048,958,212,76,56
83,113,265,1089,970,229,70,63
81,119,286,1055,953,231,66,60
75,117,303,1146,912,201,63,61
67,105,290,1087,868,178,59,62
69,102,260,990,852,165,65,65
64,100,252,921,825,178,66,64
64,90,221,946,805,183,71,66
61,76,173,825,753,182,64,61
63,85,179,866,713,217,63,55
64,95,204,899,680,219,54,51
68,120,227,1013,686,225,54,43
63,117,229,1024,673,214,48,39
65,119,243,1019,748,216,50,42
64,115,251,1001,779,200,62,47
66,113,264,1013,824,200,62,49
60,85,256,951,793,160,60,52
60,87,263,915,782,183,59,52
60,84,253,934,730,202,65,52
55,83,237,977,732,209,56,47
59,99,271,978,722,207,63,47
59,120,298,1002,738,227,65,45
62,120,304,1082,766,221,71,55
61,122,306,1109,749,200,65,54
64,115,251,1001,779,200,62,47
66,113,264,1013,824,200,62,49
60,85,256,951,793,160,60,52
60,87,263,915,782,183,59,52
60,84,253,934,730,202,65,52
55,83,237,977,732,209,56,47
59,99,271,978,722,207,63,47
59,120,298,1002,738,227,65,45
62,120,304,1082,766,221,71,55
61,122,306,1109,749,200,65,54
59,122,313,1153,726,206,66,55
56,108,262,1149,711,205,57,53
53,83,206,1067,650,209,56,51
66,99,201,1014,677,201,55,52
68,95,200,942,700,223,65,52
80,113,221,966,729,209,65,55
77,114,218,907,735,196,70,56
78,119,235,1082,735,210,69,57
70,110,244,1126,714,216,69,55
68,108,238,1126,695,201,57,54
67,92,218,1025,677,204,59,56
73,90,216,987,664,212,59,58
74,88,204,817,709,188,62,59
71,86,189,859,763,181,56,53
71,91,196,836,730,221,57,53
60,100,210,905,839,210,54,50
53,95,212,925,891,234,48,47
46,90,220,1027,863,221,43,44
51,97,207,962,808,219,43,43
54,96,211,979,849,171,45,44
67,92,218,1025,677,204,59,56
73,90,216,987,664,212,59,58
74,88,204,817,709,188,62,59
71,86,189,859,763,181,56,53
71,91,196,836,730,221,57,53
60,100,210,905,839,210,54,50
53,95,212,925,891,234,48,47
46,90,220,1027,863,221,43,44
51,97,207,962,808,219,43,43
54,96,211,979,849,171,45,44
57,87,203,996,736,205,44,45
55,92,190,1020,656,212,45,48
59,92,194,935,629,220,42,46
55,84,198,857,687,224,43,44
58,85,213,861,649,236,41,46
53,82,214,784,644,202,40,39
53,77,219,859,678,192,41,37
55,81,211,867,716,206,48,43
56,82,213,935,678,235,50,44
52,82,195,935,681,227,50,44
55,80,191,879,665,228,51,47
60,83,192,746,611,214,50,48
53,81,209,703,596,201,44,43
57,83,198,701,627,164,43,46
60,79,189,751,668,199,44,45
57,80,188,869,654,213,53,43
56,78,205,944,726,212,54,45
70,85,192,949,734,201,56,47
72,94,210,945,693,228,54,42
67,90,213,989,664,204,57,40
55,80,191,879,665,228,51,47
60,83,192,746,611,214,50,48
53,81,209,703,596,201,44,43
57,83,198,701,627,164,43,46
60,79,189,751,668,199,44,45
57,80,188,869,654,213,53,43
56,78,205,944,726,212,54,45
70,85,192,949,734,201,56,47
72,94,210,945,693,228,54,42
67,90,213,989,664,204,57,40
69,94,197,935,687,190,49,41
64,93,175,976,632,217,45,37
54,85,167,963,627,232,45,35
48,67,142,940,680,212,43,37
49,70,144,835,711,209,41,41
46,65,186,808,739,205,40,37
55,66,188,694,738,188,46,41
57,74,203,695,732,193,48,41
56,82,216,657,752,193,49,40
66,96,221,660,786,236,47,38
70,100,195,655,747,242,47,42
68,97,194,750,853,222,45,41
64,91,196,772,846,202,45,43
64,86,188,791,788,202,46,43
53,76,194,783,753,139,46,41
48,76,197,806,849,130,45,38
44,80,206,748,715,134,45,38
41,77,178,701,708,153,39,34
40,76,182,718,712,239,44,34
38,71,168,795,692,242,45,36
70,100,195,655,747,242,47,42
68,97,194,750,853,222,45,41
64,91,196,772,846,202,45,43
64,86,188,791,788,202,46,43
53,76,194,783,753,139,46,41
48,76,197,806,849,130,45,38
44,80,206,748,715,134,45,38
41,77,178,701,708,153,39,34
40,76,182,718,712,239,44,34
38,71,168,795,692,242,45,36
39,66,159,853,536,247,43,36
36,63,151,895,621,243,39,30
42,63,156,875,598,275,45,38
44,78,159,904,613,206,47,41
45,78,166,864,574,215,52,42
50,79,169,792,605,237,55,43
50,81,163,727,531,251,62,47
52,83,167,788,716,231,59,42
52,74,149,912,726,221,57,41
55,75,153,936,741,232,54,41
54,77,171,921,769,239,51,39
57,78,168,909,820,238,51,38
58,79,193,887,712,212,52,39
62,88,224,749,747,237,47,40
61,88,221,839,739,238,47,41
57,84,213,891,773,255,57,43
56,77,214,922,709,240,52,42
50,70,188,929,686,244,51,41
47,51,155,930,585,240,56,41
48,47,145,818,651,218,54,38
54,77,171,921,769,239,51,39
57,78,168,909,820,238,51,38
58,79,193,887,712,212,52,39
62,88,224,749,747,237,47,40
61,88,221,839,739,238,47,41
57,84,213,891,773,255,57,43
56,77,214,922,709,240,52,42
50,70,188,929,686,244,51,41
47,51,155,930,585,240,56,41
48,47,145,818,651,218,54,38
48,54,136,841,568,177,50,37
49,57,136,809,567,212,52,42
56,78,156,864,581,222,53,42
55,83,180,841,674,198,52,43
52,82,180,844,626,224,57,45
60,87,204,765,615,214,58,48
62,95,209,748,771,202,60,47
62,96,214,628,873,202,62,53
65,93,197,690,918,213,63,61
67,100,212,715,935,206,59,60
66,101,186,710,993,215,56,60
66,99,182,714,884,208,52,57
61,90,187,817,796,216,49,52
60,91,180,734,725,207,46,41
64,86,170,680,711,205,53,49
59,78,166,662,646,209,54,45
59,77,159,769,741,206,55,50
55,71,121,748,771,203,56,47
52,73,142,805,789,217,59,49
47,77,149,864,808,199,54,42
66,101,186,710,993,215,56,60
66,99,182,714,884,208,52,57
61,90,187,817,796,216,49,52
60,91,180,734,725,207,46,41
64,86,170,680,711,205,53,49
59,78,166,662,646,209,54,45
59,77,159,769,741,206,55,50
55,71,121,748,771,203,56,47
52,73,142,805,789,217,59,49
47,77,149,864,808,199,54,42
45,74,156,889,823,211,55,40
42,68,159,782,798,218,50,35
44,74,174,745,818,221,50,38
47,77,164,661,771,215,48,36
48,77,161,572,713,218,48,36
51,80,172,666,769,226,47,40
52,87,189,681,766,213,50,44
53,86,178,683,706,192,47,43
51,83,174,686,733,190,46,44
50,78,168,709,789,191,42,41
46,73,165,565,708,156,38,38
48,82,183,530,661,196,36,35
49,80,182,555,652,204,37,36
52,79,187,576,651,225,39,43
51,82,183,590,609,230,40,46
50,85,184,679,741,227,43,46
51,76,167,761,712,239,42,46
47,74,177,801,702,233,44,44
42,73,178,843,708,221,41,36
46,77,193,879,706,243,42,39
46,73,165,565,708,156,38,38
48,82,183,530,661,196,36,35
49,80,182,555,652,204,37,36
52,79,187,576,651,225,39,43
51,82,183,590,609,230,40,46
50,85,184,679,741,227,43,46
51,76,167,761,712,239,42,46
47,74,177,801,702,233,44,44
42,73,178,843,708,221,41,36
46,77,193,879,706,243,42,39
48,75,184,817,608,249,39,42
56,82,177,849,643,235,38,47
60,87,177,883,707,239,38,49
62,84,190,929,662,243,38,49
66,89,188,930,687,215,39,48
72,91,211,926,679,205,44,52
62,80,222,915,680,179,48,46
61,82,227,905,624,209,46,46
63,89,223,816,661,194,49,50
59,83,216,759,653,194,61,54
54,90,207,881,635,204,58,47
57,97,217,823,623,198,54,47
57,88,208,723,578,166,55,44
58,85,195,832,559,166,54,41
56,82,191,886,557,163,43,44
61,82,187,794,542,161,43,47
66,99,194,808,546,150,47,48
63,100,228,828,560,147,42,48
59,102,301,876,588,150,42,47
60,104,308,950,562,173,36,34
54,90,207,881,635,204,58,47
57,97,217,823,623,198,54,47
57,88,208,723,578,166,55,44
58,85,195,832,559,166,54,41
56,82,191,886,557,163,43,44
61,82,187,794,542,161,43,47
66,99,194,808,546,150,47,48
63,100,228,828,560,147,42,48
59,102,301,876,588,150,42,47
60,104,308,950,562,173,36,34
53,102,305,943,637,166,44,35
44,79,290,949,742,195,45,34
51,83,267,930,768,205,48,35
53,77,181,856,785,197,50,35
50,77,185,765,836,218,51,40
51,76,189,775,781,211,47,38
53,72,177,794,668,197,45,37
49,66,166,821,651,174,45,36
50,74,205,743,631,173,42,37
48,72,189,761,630,126,42,37
51,66,182,802,659,177,40,37
49,76,173,766,700,174,41,37
52,86,194,722,701,192,36,39
47,84,164,699,729,208,47,42
49,85,168,644,671,211,49,40
44,85,166,596,675,173,51,39
45,84,178,620,664,165,55,41
43,80,166,641,686,148,56,42
50,79,151,694,612,175,50,42
50,77,149,694,606,172,48,40
51,66,182,802,659,177,40,37
49,76,173,766,700,174,41,37
52,86,194,722,701,192,36,39
47,84,164,699,729,208,47,42
49,85,168,644,671,211,49,40
44,85,166,596,675,173,51,39
45,84,178,620,664,165,55,41
43,80,166,641,686,148,56,42
50,79,151,694,612,175,50,42
50,77,149,694,606,172,48,40
53,90,196,823,647,173,45,40
53,93,216,919,664,216,39,37
51,90,213,958,713,245,38,38
48,89,216,973,710,219,36,37
49,89,213,953,755,224,36,38
44,74,186,905,708,229,39,40
59,82,175,795,657,206,42,44
60,82,176,817,621,200,43,41
64,83,174,809,701,210,42,40
68,86,186,834,689,205,42,46
69,96,189,790,698,239,43,49
58,87,164,792,734,222,42,45
62,94,171,764,811,206,48,55
57,100,186,801,726,192,47,54
52,100,174,771,743,185,49,48
72,94,150,700,710,196,51,45
115,90,148,688,693,196,52,45
145,78,119,601,529,191,46,37
233,73,88,494,585,190,45,42
302,79,80,490,525,188,41,64
69,96,189,790,698,239,43,49
58,87,164,792,734,222,42,45
62,94,171,764,811,206,48,55
57,100,186,801,726,192,47,54
52,100,174,771,743,185,49,48
72,94,150,700,710,196,51,45
115,90,148,688,693,196,52,45
145,78,119,601,529,191,46,37
233,73,88,494,585,190,45,42
302,79,80,490,525,188,41,64
313,89,91,526,497,125,35,69
327,97,124,572,516,127,43,72
355,105,140,595,531,147,47,75
342,109,138,609,490,145,50,78
298,102,137,674,492,142,52,63
307,95,130,710,518,142,52,59
308,83,95,655,483,142,44,60
289,76,68,618,465,106,39,62
259,67,85,622,446,110,34,57
252,62,84,517,407,107,32,57
224,54,84,438,361,86,28,54
183,52,92,411,298,70,25,47
140,50,103,415,284,66,23,36
117,41,92,334,241,48,21,28
103,38,87,308,257,34,19,21
113,38,79,271,269,30,17,21
120,40,65,197,277,28,17,22
117,37,52,159,259,30,17,22
109,38,56,197,263,32,16,25
101,43,74,246,241,58,21,26
38,68,116,716,621,162,39,38
44,90,166,739,630,155,46,41
49,105,207,780,737,162,45,44
56,112,224,847,761,166,55,50
64,122,242,878,816,177,62,59
75,146,294,914,735,159,68,65
79,143,297,1000,770,157,64,64
77,133,285,1026,717,193,69,64
78,136,289,1115,815,246,66,66
77,130,279,1152,974,265,69,67
70,117,255,1153,1014,275,68,66
75,124,249,1095,1108,272,76,78
82,145,310,1252,1134,273,76,82
85,145,343,1242,1135,273,82,82
92,154,359,1213,1061,278,87,86
94,146,370,1224,1111,305,102,90
92,137,361,1213,1023,358,101,89
97,132,337,1035,1052,348,100,89
102,142,326,961,1053,310,102,95
95,136,365,1145,1090,293,101,90
100,148,354,1084,1143,275,94,91
104,162,362,1095,1160,273,92,92
99,156,334,1151,1133,285,96,90
85,142,320,1172,1135,299,89,78
104,156,291,954,1155,316,98,94
101,149,287,964,1115,308,93,92
100,137,292,1030,1199,266,108,94
97,130,301,971,1222,249,108,95
104,133,297,951,1260,257,108,97
86,121,273,977,1195,240,101,81
100,148,354,1084,1143,275,94,91
104,162,362,1095,1160,273,92,92
99,156,334,1151,1133,285,96,90
85,142,320,1172,1135,299,89,78
104,156,291,954,1155,316,98,94
101,149,287,964,1115,308,93,92
100,137,292,1030,1199,266,108,94
97,130,301,971,1222,249,108,95
104,133,297,951,1260,257,108,97
86,121,273,977,1195,240,101,81
89,122,265,1001,1222,238,101,80
83,118,248,933,1278,288,82,70
93,122,268,1050,1265,288,79,74
92,125,259,1071,1209,271,81,77
87,109,256,1098,1153,257,75,77
83,105,266,1102,1106,288,78,77
91,117,301,1076,950,245,81,79
83,114,304,946,957,266,84,76
90,115,297,892,932,280,85,74
94,120,293,909,1004,302,86,74
87,114,274,968,970,281,81,71
74,93,235,975,958,261,81,69
70,92,201,998,1055,232,77,67
54,88,231,1026,1093,236,76,64
53,86,233,979,1072,225,78,66
65,108,269,973,1131,233,84,73
67,118,270,985,1175,260,81,73
71,119,277,958,1072,276,83,75
70,118,269,969,1043,273,80,73
68,124,271,1016,1037,282,73,69
87,114,274,968,970,281,81,71
74,93,235,975,958,261,81,69
70,92,201,998,1055,232,77,67
54,88,231,1026,1093,236,76,64
53,86,233,979,1072,225,78,66
65,108,269,973,1131,233,84,73
67,118,270,985,1175,260,81,73
71,119,277,958,1072,276,83,75
70,118,269,969,1043,273,80,73
68,124,271,1016,1037,282,73,69
63,122,272,1133,1061,282,70,67
60,111,268,1193,987,267,71,64
60,127,276,1229,1075,266,72,61
60,126,279,1247,1039,250,71,64
56,117,279,1262,1009,280,69,59
62,105,244,1088,894,277,73,60
67,120,271,1054,933,273,72,61
62,101,247,977,781,262,66,58
60,101,225,966,798,261,66,58
61,105,209,905,772,245,67,58
77,118,210,960,828,226,63,59
79,115,184,1013,821,215,59,58
82,119,198,1168,912,220,63,59
87,126,252,1210,895,223,69,59
89,128,266,1258,932,174,70,67
70,114,272,1230,913,192,62,60
77,122,264,1188,967,195,60,66
76,123,271,1076,875,197,58,68
73,116,248,1105,934,196,51,68
71,116,250,1061,993,262,49,63
77,118,210,960,828,226,63,59
79,115,184,1013,821,215,59,58
82,119,198,1168,912,220,63,59
87,126,252,1210,895,223,69,59
89,128,266,1258,932,174,70,67
70,114,272,1230,913,192,62,60
77,122,264,1188,967,195,60,66
76,123,271,1076,875,197,58,68
73,116,248,1105,934,196,51,68
71,116,250,1061,993,262,49,63
71,119,250,1084,998,261,52,60
53,104,263,1067,996,264,54,48
58,99,244,1058,988,253,57,54
56,95,221,942,906,257,57,50
55,89,196,956,837,203,57,51
53,76,196,897,745,177,55,51
60,71,178,926,600,174,53,53
53,60,177,934,595,207,50,46
58,71,177,979,671,214,50,49
58,80,193,989,630,221,49,45
61,81,177,1016,710,236,51,49
64,97,203,957,867,244,51,51
87,117,232,978,932,231,52,58
85,114,239,866,965,230,53,61
85,108,222,814,989,221,52,62
82,106,222,887,960,217,52,61
75,94,208,860,887,213,51,58
52,82,181,873,822,221,46,50
58,87,194,1066,827,222,49,52
58,87,204,1076,863,216,50,55
61,81,177,1016,710,236,51,49
64,97,203,957,867,244,51,51
87,117,232,978,932,231,52,58
85,114,239,866,965,230,53,61
85,108,222,814,989,221,52,62
82,106,222,887,960,217,52,61
75,94,208,860,887,213,51,58
52,82,181,873,822,221,46,50
58,87,194,1066,827,222,49,52
58,87,204,1076,863,216,50,55
65,90,201,1020,914,220,45,54
68,88,191,1089,897,220,48,56
64,73,181,1058,1004,213,50,53
63,80,165,937,1009,204,46,50
66,82,174,946,956,261,44,46
67,82,188,930,928,258,44,48
64,80,190,911,916,265,45,45
63,91,217,1038,806,255,46,48
68,90,259,1126,765,262,61,58
64,90,258,1101,761,208,66,62
57,87,251,1140,748,220,69,63
59,88,245,1106,805,222,68,63
65,87,244,1014,919,216,71,64
59,93,222,966,910,223,62,53
68,98,212,924,912,277,68,56
67,100,211,924,928,273,66,53
83,107,227,986,899,277,70,59
88,115,239,1008,822,301,68,64
84,101,203,948,867,303,69,64
80,102,213,1067,944,277,60,57
57,87,251,1140,748,220,69,63
59,88,245,1106,805,222,68,63
65,87,244,1014,919,216,71,64
59,93,222,966,910,223,62,53
68,98,212,924,912,277,68,56
67,100,211,924,928,273,66,53
83,107,227,986,899,277,70,59
88,115,239,1008,822,301,68,64
84,101,203,948,867,303,69,64
80,102,213,1067,944,277,60,57
86,109,223,1025,945,291,59,59
73,106,214,984,956,287,56,54
64,95,177,981,942,279,55,47
69,110,251,1122,891,288,61,60
72,116,257,1061,827,266,67,64
64,110,260,1084,941,285,68,62
69,115,270,1247,943,286,69,64
69,113,269,1181,984,286,70,65
64,103,210,1029,969,289,63,50
60,93,229,1018,946,296,63,49
66,92,227,1068,843,264,73,59
60,83,217,851,810,271,76,55
62,98,246,1003,831,259,77,58
68,103,270,969,920,240,73,59
68,107,283,1034,931,260,70,60
65,115,283,1007,991,259,67,60
74,124,290,1100,1004,321,67,68
82,128,289,1006,1060,322,67,69
78,129,276,1037,954,345,70,71
84,133,238,1103,1002,346,70,75
66,92,227,1068,843,264,73,59
60,83,217,851,810,271,76,55
62,98,246,1003,831,259,77,58
68,103,270,969,920,240,73,59
68,107,283,1034,931,260,70,60
65,115,283,1007,991,259,67,60
74,124,290,1100,1004,321,67,68
82,128,289,1006,1060,322,67,69
78,129,276,1037,954,345,70,71
84,133,238,1103,1002,346,70,75
86,138,262,1069,903,340,62,72
79,131,260,999,871,304,59,67
70,121,231,1021,753,304,61,64
78,115,222,1029,888,266,68,70
72,99,226,940,839,254,65,63
70,81,210,989,871,268,67,61
73,80,191,960,863,236,70,67
75,73,192,918,870,253,67,67
70,78,206,923,952,265,61,66
71,85,198,862,971,253,69,69
79,97,187,781,974,237,71,75
76,98,201,920,1050,250,66,67
74,99,231,986,1046,263,63,65
73,89,243,1065,892,275,65,61
76,99,266,1140,940,283,66,62
68,91,264,1217,942,304,62,55
74,108,285,1163,998,297,67,62
71,107,267,1155,1071,301,70,63
80,131,300,1212,1170,284,84,79
82,135,312,1190,1216,333,83,80
79,97,187,781,974,237,71,75
76,98,201,920,1050,250,66,67
74,99,231,986,1046,263,63,65
73,89,243,1065,892,275,65,61
76,99,266,1140,940,283,66,62
68,91,264,1217,942,304,62,55
74,108,285,1163,998,297,67,62
71,107,267,1155,1071,301,70,63
80,131,300,1212,1170,284,84,79
82,135,312,1190,1216,333,83,80
87,143,320,1183,1222,325,84,82
90,139,304,1183,1144,326,86,80
93,149,339,1204,1105,329,89,85
83,132,287,1079,1081,347,77,70
85,145,282,1030,1032,329,74,68
86,144,282,1023,1106,321,81,75
92,151,292,1018,1232,330,81,81
105,164,293,1032,1267,293,90,90
111,169,329,1162,1253,302,91,93
123,154,315,1293,1271,309,93,101
123,150,368,1283,1311,355,94,102
120,162,454,1289,1207,379,113,108
123,191,504,1299,1236,394,112,107
140,202,483,1211,1238,423,140,138
144,244,558,1204,1280,403,149,147
143,244,532,1276,1129,384,147,144
145,240,484,1240,1141,357,133,138
138,223,551,1222,1037,399,128,131
120,217,560,1214,1020,359,99,99
95,166,494,1095,975,352,82,74
123,150,368,1283,1311,355,94,102
120,162,454,1289,1207,379,113,108
123,191,504,1299,1236,394,112,107
140,202,483,1211,1238,423,140,138
144,244,558,1204,1280,403,149,147
143,244,532,1276,1129,384,147,144
145,240,484,1240,1141,357,133,138
138,223,551,1222,1037,399,128,131
120,217,560,1214,1020,359,99,99
95,166,494,1095,975,352,82,74
90,171,500,1079,1077,331,79,67
78,160,479,1090,1081,334,82,61
76,143,399,1192,1081,281,84,68
67,133,409,1268,1089,278,84,63
85,156,452,1433,1048,316,86,73
92,152,453,1407,1132,320,94,87
93,146,444,1510,1079,356,94,91
90,147,367,1447,1119,346,94,90
106,172,448,1365,1139,340,94,90
110,169,424,1269,1172,312,105,93
127,193,473,1257,1073,395,107,99
145,212,486,1259,1246,358,113,111
148,213,496,1220,1304,378,110,109
156,208,467,1314,1268,406,115,122
151,200,448,1302,1341,420,102,114
133,180,397,1228,1386,360,95,101
115,163,401,1122,1252,353,86,88
112,166,455,1193,1160,337,81,85
93,168,471,1149,1172,289,70,67
96,172,499,1102,1061,263,76,71
127,193,473,1257,1073,395,107,99
145,212,486,1259,1246,358,113,111
148,213,496,1220,1304,378,110,109
156,208,467,1314,1268,406,115,122
151,200,448,1302,1341,420,102,114
133,180,397,1228,1386,360,95,101
115,163,401,1122,1252,353,86,88
112,166,455,1193,1160,337,81,85
93,168,471,1149,1172,289,70,67
96,172,499,1102,1061,263,76,71
108,174,479,1176,968,240,74,75
108,172,467,1140,1045,240,70,71
104,157,394,1000,1041,229,71,73
103,148,316,1057,1037,249,71,72
94,151,312,1040,1061,231,64,71
81,148,335,1081,1085,252,60,62
78,150,348,1110,1009,264,70,65
83,155,363,1140,1023,297,70,66
91,174,374,1021,980,326,73,66
91,163,349,1089,935,346,73,66
92,159,328,949,885,361,74,73
100,156,328,984,857,363,70,75
102,150,319,1028,934,354,74,77
103,124,282,1072,943,320,76,81
99,120,271,1015,910,296,81,78
103,135,290,1043,937,255,81,78
96,133,289,1044,1019,251,76,73
96,135,297,1015,934,228,76,72
93,134,331,965,932,270,71,70
92,140,341,990,956,279,65,69
92,159,328,949,885,361,74,73
100,156,328,984,857,363,70,75
102,150,319,1028,934,354,74,77
103,124,282,1072,943,320,76,81
99,120,271,1015,910,296,81,78
103,135,290,1043,937,255,81,78
96,133,289,1044,1019,251,76,73
96,135,297,1015,934,228,76,72
93,134,331,965,932,270,71,70
92,140,341,990,956,279,65,69
83,127,342,1057,911,277,61,61
80,132,336,1052,927,283,68,58
73,128,329,1101,869,293,66,55
84,138,309,1172,916,253,73,61
95,136,296,1107,851,248,76,65
102,156,366,1096,825,254,84,76
102,154,373,1045,674,236,80,78
106,158,370,976,710,217,76,79
95,143,365,1013,777,252,71,72
94,148,372,1014,853,272,72,76
93,144,319,988,929,272,62,69
95,148,308,1012,945,256,60,66
92,144,339,1060,980,288,61,64
83,142,335,959,855,253,53,59
78,132,313,952,830,240,49,51
74,115,285,948,859,268,48,46
70,113,296,945,892,275,48,46
66,119,301,1014,923,238,48,43
67,114,334,1139,969,247,50,43
66,119,335,1193,959,252,51,45
93,144,319,988,929,272,62,69
95,148,308,1012,945,256,60,66
92,144,339,1060,980,288,61,64
83,142,335,959,855,253,53,59
78,132,313,952,830,240,49,51
74,115,285,948,859,268,48,46
70,113,296,945,892,275,48,46
66,119,301,1014,923,238,48,43
67,114,334,1139,969,247,50,43
66,119,335,1193,959,252,51,45
69,135,366,1172,907,219,58,55
96,154,362,1148,956,223,67,70
99,154,313,1045,950,236,68,73
101,154,271,960,998,246,69,76
99,152,264,949,1018,235,67,73
97,137,195,1016,1036,250,64,69
75,110,172,1087,983,250,55,54
72,100,189,1178,920,251,56,54
68,102,233,1153,879,281,60,53
76,118,262,1149,859,292,62,53
76,119,293,1147,809,301,71,60
75,112,300,1102,764,316,73,59
78,112,300,1016,806,318,71,57
76,111,298,1093,867,281,65,55
72,94,305,1145,875,274,66,55
64,85,280,1117,849,255,55,44
64,95,268,1124,841,225,51,48
59,93,267,1096,816,200,51,49
60,90,227,966,667,189,57,49
51,77,170,840,606,178,54,45
76,119,293,1147,809,301,71,60
75,112,300,1102,764,316,73,59
78,112,300,1016,806,318,71,57
76,111,298,1093,867,281,65,55
72,94,305,1145,875,274,66,55
64,85,280,1117,849,255,55,44
64,95,268,1124,841,225,51,48
59,93,267,1096,816,200,51,49
60,90,227,966,667,189,57,49
51,77,170,840,606,178,54,45
72,77,167,854,638,153,52,46
76,69,157,759,634,153,50,42
143,64,135,700,604,149,46,43
178,66,129,616,597,144,34,39
225,71,149,659,570,125,32,44
241,74,148,539,593,137,32,42
276,72,151,535,554,142,31,44
279,81,151,573,488,137,34,46
311,94,151,643,440,131,34,61
300,89,126,566,463,122,40,66
288,80,144,547,442,131,36,66
276,77,144,598,524,140,39,64
474,78,147,581,519,153,38,94
508,71,136,535,542,156,38,99
595,84,139,547,497,156,37,103
645,97,113,588,514,134,41,107
652,106,130,532,460,109,38,108
546,105,129,490,478,91,40,85
531,108,135,492,461,81,43,76
569,121,128,466,450,72,41,79
52,81,196,933,839,155,44,38
72,104,242,954,892,146,58,61
73,106,244,1074,891,149,60,63
74,110,239,1105,876,163,64,67
76,108,229,1075,904,183,68,71
76,114,257,1135,1025,201,81,74
68,106,240,1176,1052,227,81,68
68,102,241,1209,1087,225,80,68
68,103,246,1185,1033,223,83,69
76,120,282,1285,1128,239,93,75
89,142,300,1283,1107,234,94,82
97,157,336,1326,1070,219,97,89
101,166,345,1270,1123,225,107,94
118,182,376,1286,1156,238,109,106
116,183,390,1177,1068,234,105,105
111,178,417,1139,1045,254,100,101
105,166,395,1163,1066,258,94,94
117,186,472,1151,990,276,87,99
100,173,449,1150,1007,285,89,93
121,202,447,1113,1012,276,102,107
120,192,411,1110,1034,305,106,108
121,198,413,1088,1058,315,108,110
120,194,380,1192,1158,335,108,110
120,199,376,1142,1182,328,112,108
101,161,346,1120,1168,321,101,94
103,168,334,1223,1243,291,97,92
105,154,315,1226,1229,301,105,92
97,130,247,1175,1140,322,103,83
100,121,241,1210,1168,325,96,82
99,124,263,1275,1172,332,103,88
120,192,411,1110,1034,305,106,108
121,198,413,1088,1058,315,108,110
120,194,380,1192,1158,335,108,110
120,199,376,1142,1182,328,112,108
101,161,346,1120,1168,321,101,94
103,168,334,1223,1243,291,97,92
105,154,315,1226,1229,301,105,92
97,130,247,1175,1140,322,103,83
100,121,241,1210,1168,325,96,82
99,124,263,1275,1172,332,103,88
98,128,289,1252,1033,339,103,87
93,136,300,1253,967,335,96,81
90,148,332,1266,1011,295,94,82
92,159,370,1336,949,315,97,80
100,174,375,1307,937,365,89,77
101,169,347,1222,981,385,93,81
99,161,349,1199,1170,423,99,82
96,151,317,1127,1221,413,100,83
91,139,310,1034,1198,408,99,81
77,111,280,948,1222,420,100,75
75,109,317,980,1198,411,95,69
84,117,327,991,981,370,87,69
88,117,331,1002,927,381,91,74
90,120,318,1103,916,382,89,75
90,124,334,1145,925,374,87,78
87,127,323,1120,1012,362,86,75
82,117,311,1154,1021,354,96,80
79,124,308,1144,1028,348,92,74
86,132,322,1032,1046,337,91,80
92,138,309,1011,990,284,97,83
75,109,317,980,1198,411,95,69
84,117,327,991,981,370,87,69
88,117,331,1002,927,381,91,74
90,120,318,1103,916,382,89,75
90,124,334,1145,925,374,87,78
87,127,323,1120,1012,362,86,75
82,117,311,1154,1021,354,96,80
79,124,308,1144,1028,348,92,74
86,132,322,1032,1046,337,91,80
92,138,309,1011,990,284,97,83
91,134,320,1032,916,297,100,87
83,141,317,958,1042,324,88,79
88,138,312,978,1042,316,96,84
83,126,274,947,999,300,102,82
84,129,312,1085,999,387,92,77
85,125,281,1134,1031,404,90,78
85,128,317,1161,1023,388,90,76
82,126,332,1139,990,398,79,70
86,131,331,1159,1067,405,81,70
90,131,304,1122,1111,338,88,78
89,130,309,1122,1113,294,88,71
96,134,324,1102,1055,307,92,80
98,139,337,1092,1100,330,93,82
91,135,349,1142,1081,361,84,79
85,136,354,1191,1091,345,81,75
82,143,354,1149,1056,354,77,76
78,133,315,1176,1134,338,73,73
72,134,298,1206,1089,352,73,69
76,146,298,1108,1039,314,71,67
78,138,277,1052,959,340,75,72
89,130,309,1122,1113,294,88,71
96,134,324,1102,1055,307,92,80
98,139,337,1092,1100,330,93,82
91,135,349,1142,1081,361,84,79
85,136,354,1191,1091,345,81,75
82,143,354,1149,1056,354,77,76
78,133,315,1176,1134,338,73,73
72,134,298,1206,1089,352,73,69
76,146,298,1108,1039,314,71,67
78,138,277,1052,959,340,75,72
83,140,273,1103,1001,322,79,77
88,146,257,1089,947,340,79,76
89,139,248,1085,912,290,84,83
89,130,262,1199,917,309,93,86
86,135,279,1184,953,277,88,85
88,137,314,1210,913,287,91,86
88,144,315,1172,954,291,91,86
88,141,308,1201,925,326,86,79
88,136,288,1151,987,299,78,76
97,141,290,1140,975,290,78,78
98,140,243,1068,1059,293,72,74
110,153,276,1097,948,287,77,85
123,170,327,1088,995,275,80,96
124,177,322,1086,953,307,81,94
116,172,307,1163,932,324,79,88
115,177,335,1176,809,328,82,91
100,157,325,1136,841,338,76,79
84,141,289,1098,837,353,72,68
79,132,308,1221,951,334,71,70
80,130,318,1170,1027,310,65,67
98,140,243,1068,1059,293,72,74
110,153,276,1097,948,287,77,85
123,170,327,1088,995,275,80,96
124,177,322,1086,953,307,81,94
116,172,307,1163,932,324,79,88
115,177,335,1176,809,328,82,91
100,157,325,1136,841,338,76,79
84,141,289,1098,837,353,72,68
79,132,308,1221,951,334,71,70
80,130,318,1170,1027,310,65,67
75,120,312,1120,1044,306,59,62
98,154,352,1146,1100,261,73,79
104,161,359,1212,1112,238,79,87
111,165,341,1129,1001,243,84,94
109,159,324,1050,1018,261,83,94
106,150,311,1125,1063,266,85,94
84,112,263,1170,976,262,74,77
72,91,233,1076,924,238,64,63
59,79,219,983,927,243,55,51
66,95,245,1025,854,257,55,54
68,98,249,998,736,255,57,54
64,102,235,930,849,255,55,55
62,107,250,956,833,258,55,56
70,111,256,948,803,264,61,64
65,108,256,1020,826,252,67,65
74,117,237,968,830,244,66,68
89,122,225,990,810,292,68,76
98,128,214,975,876,302,68,78
97,131,256,1043,958,295,73,74
108,149,287,1038,917,307,70,72
68,98,249,998,736,255,57,54
64,102,235,930,849,255,55,55
62,107,250,956,833,258,55,56
70,111,256,948,803,264,61,64
65,108,256,1020,826,252,67,65
74,117,237,968,830,244,66,68
89,122,225,990,810,292,68,76
98,128,214,975,876,302,68,78
97,131,256,1043,958,295,73,74
108,149,287,1038,917,307,70,72
109,159,321,1121,1031,331,69,73
98,156,344,1161,1003,297,74,70
94,154,341,1165,1005,313,78,74
102,159,330,1160,999,327,76,78
96,145,297,1077,1105,403,76,80
94,145,335,1056,1121,398,77,78
103,165,323,1020,1147,435,75,78
101,164,352,1132,1123,476,73,75
90,155,335,1184,1140,514,75,76
93,157,328,1224,1108,464,85,80
97,147,270,1267,1044,480,85,82
96,129,278,1302,1035,453,85,84
96,124,263,1181,1069,399,85,80
96,124,254,1080,1031,349,77,75
97,128,279,1050,990,359,71,76
98,133,286,993,970,312,72,81
95,125,306,1119,917,308,70,80
95,124,286,1094,921,394,73,83
94,123,298,1094,900,386,75,85
86,107,278,1094,915,370,77,79
97,147,270,1267,1044,480,85,82
96,129,278,1302,1035,453,85,84
96,124,263,1181,1069,399,85,80
96,124,254,1080,1031,349,77,75
97,128,279,1050,990,359,71,76
98,133,286,993,970,312,72,81
95,125,306,1119,917,308,70,80
95,124,286,1094,921,394,73,83
94,123,298,1094,900,386,75,85
86,107,278,1094,915,370,77,79
78,92,267,1124,918,400,74,70
73,92,230,943,927,423,74,64
75,101,258,1034,855,340,75,66
78,112,254,1119,856,343,72,58
81,118,267,1125,831,355,66,58
79,120,261,1107,909,367,61,61
85,126,253,1102,927,341,66,66
84,124,223,1011,930,336,63,64
76,108,223,969,940,372,61,63
67,95,194,940,908,348,57,57
57,85,211,818,804,302,56,50
47,68,225,865,831,313,47,42
58,90,273,971,795,341,43,38
59,96,276,946,751,288,43,38
60,102,293,972,750,302,42,37
68,106,272,982,738,337,46,40
71,111,271,936,738,316,47,42
59,89,221,828,769,310,42,41
62,88,228,778,809,306,46,47
61,83,212,796,823,289,47,50
57,85,211,818,804,302,56,50
47,68,225,865,831,313,47,42
58,90,273,971,795,341,43,38
59,96,276,946,751,288,43,38
60,102,293,972,750,302,42,37
68,106,272,982,738,337,46,40
71,111,271,936,738,316,47,42
59,89,221,828,769,310,42,41
62,88,228,778,809,306,46,47
61,83,212,796,823,289,47,50
63,84,218,867,830,244,51,54
62,92,213,804,749,240,51,52
68,99,233,885,764,228,51,56
68,98,208,844,727,228,47,52
67,97,195,744,721,219,48,49
56,89,209,704,659,244,43,41
61,87,230,794,661,250,47,47
57,77,206,797,575,253,47,45
55,75,212,869,541,247,46,46
60,86,228,895,490,255,43,44
64,92,227,918,517,233,39,46
56,82,196,848,543,286,34,41
51,78,194,751,590,281,30,37
53,82,198,719,655,300,31,36
59,89,195,737,643,314,36,48
68,105,206,719,645,315,39,48
68,106,219,761,584,264,41,47
72,113,231,839,579,272,43,48
70,111,237,889,480,253,41,45
69,108,236,947,500,282,38,38
64,92,227,918,517,233,39,46
56,82,196,848,543,286,34,41
51,78,194,751,590,281,30,37
53,82,198,719,655,300,31,36
59,89,195,737,643,314,36,48
68,105,206,719,645,315,39,48
68,106,219,761,584,264,41,47
72,113,231,839,579,272,43,48
70,111,237,889,480,253,41,45
69,108,236,947,500,282,38,38
65,95,225,951,522,285,39,40
65,92,196,932,601,294,35,40
61,85,186,927,636,282,35,37
71,101,220,928,687,292,38,45
67,92,227,924,691,263,37,43
65,94,213,858,728,278,35,43
64,98,226,865,699,296,41,44
