emg0,emg1,emg2,emg3,emg4,emg5,emg6,emg7
18,21,33,194,62,19,17,17
17,21,34,191,65,19,17,18
19,24,44,197,59,19,17,15
19,25,44,171,61,17,16,15
17,28,66,171,83,22,16,17
19,30,76,211,96,42,20,17
21,31,81,212,104,48,20,18
22,28,79,214,122,52,21,19
24,32,87,235,130,54,28,21
23,29,76,261,128,56,30,19
25,27,65,227,128,53,39,22
25,26,60,218,127,77,46,23
27,30,65,236,117,99,58,27
29,33,68,255,133,127,77,32
58,47,117,279,165,141,93,65
71,62,135,292,167,160,116,89
78,70,138,314,173,174,132,97
103,83,141,303,177,178,168,153
113,89,171,403,170,185,179,177
127,88,188,405,161,195,213,236
151,95,209,469,164,244,214,305
169,101,216,510,158,271,281,358
174,105,400,653,165,364,392,410
180,116,436,631,179,445,422,431
169,119,496,746,165,540,524,429
161,116,510,795,170,631,584,438
181,115,556,862,168,650,619,492
195,104,455,794,162,627,625,596
205,110,461,836,140,609,657,610
207,105,387,724,130,585,576,599
151,95,209,469,164,244,214,305
169,101,216,510,158,271,281,358
174,105,400,653,165,364,392,410
180,116,436,631,179,445,422,431
169,119,496,746,165,540,524,429
161,116,510,795,170,631,584,438
181,115,556,862,168,650,619,492
195,104,455,794,162,627,625,596
205,110,461,836,140,609,657,610
207,105,387,724,130,585,576,599
202,104,372,665,119,498,545,568
173,104,300,582,117,487,487,501
146,102,284,534,108,478,402,325
118,81,217,480,99,434,322,273
186,113,206,489,98,365,325,371
193,107,172,441,78,341,277,376
190,104,216,489,75,307,246,367
194,104,245,605,75,274,240,377
199,100,221,545,68,270,231,382
144,66,227,577,65,263,223,316
137,68,233,586,71,304,208,347
138,69,187,506,71,290,215,350
129,75,155,387,72,292,180,330
124,75,178,439,86,315,192,347
113,73,191,480,91,305,177,344
113,66,200,476,90,252,211,342
108,62,212,488,100,265,216,402
117,77,272,656,95,263,217,398
122,87,276,678,85,264,208,373
125,93,292,669,79,272,199,369
137,68,233,586,71,304,208,347
138,69,187,506,71,290,215,350
129,75,155,387,72,292,180,330
124,75,178,439,86,315,192,347
113,73,191,480,91,305,177,344
113,66,200,476,90,252,211,342
108,62,212,488,100,265,216,402
117,77,272,656,95,263,217,398
122,87,276,678,85,264,208,373
125,93,292,669,79,272,199,369
125,99,281,693,74,255,178,383
136,99,280,735,62,254,164,394
142,91,253,650,67,256,186,434
157,83,247,629,79,275,192,493
166,73,225,590,75,283,212,527
179,69,241,591,81,340,216,527
174,69,235,547,80,361,236,481
168,63,229,489,80,357,240,518
151,64,222,447,65,331,242,470
140,76,250,475,67,344,257,415
113,74,249,442,63,294,250,365
110,72,253,403,68,268,243,380
106,73,234,425,68,269,224,324
105,78,233,447,68,257,212,359
111,71,186,410,66,214,177,419
109,73,187,432,68,214,175,436
133,79,191,464,62,207,172,452
131,76,204,432,56,220,182,490
144,75,258,477,61,225,185,494
138,76,266,488,63,229,184,473
113,74,249,442,63,294,250,365
110,72,253,403,68,268,243,380
106,73,234,425,68,269,224,324
105,78,233,447,68,257,212,359
111,71,186,410,66,214,177,419
109,73,187,432,68,214,175,436
133,79,191,464,62,207,172,452
131,76,204,432,56,220,182,490
144,75,258,477,61,225,185,494
138,76,266,488,63,229,184,473
149,82,253,473,58,211,180,506
121,74,252,498,61,202,175,473
127,73,246,512,64,181,176,414
119,69,180,455,63,182,162,370
115,64,166,430,67,187,156,346
111,61,176,431,71,199,162,388
115,65,175,410,76,199,172,412
104,62,165,377,76,217,166,387
98,64,173,399,71,196,163,399
102,64,177,421,64,219,192,424
87,57,168,457,64,238,180,320
95,61,169,461,57,236,161,295
100,59,154,490,54,229,168,313
120,66,175,481,58,261,200,339
124,69,186,477,65,252,173,334
142,72,195,446,66,237,202,413
144,69,208,445,69,266,208,425
141,71,206,403,67,267,193,410
123,66,219,402,70,239,152,376
123,65,209,381,66,211,151,383
87,57,168,457,64,238,180,320
95,61,169,461,57,236,161,295
100,59,154,490,54,229,168,313
120,66,175,481,58,261,200,339
124,69,186,477,65,252,173,334
142,72,195,446,66,237,202,413
144,69,208,445,69,266,208,425
141,71,206,403,67,267,193,410
123,66,219,402,70,239,152,376
123,65,209,381,66,211,151,383
143,72,243,439,58,189,122,372
145,75,221,410,54,143,109,380
147,79,259,452,57,120,111,380
146,77,241,447,51,147,139,396
147,78,248,460,54,166,150,380
125,68,208,382,54,193,142,344
115,64,215,404,58,198,137,315
121,64,180,409,54,230,139,328
122,61,172,406,53,211,109,307
113,58,189,459,47,200,88,268
96,57,177,467,47,176,78,213
99,52,170,453,41,170,79,210
93,51,189,417,46,122,85,190
88,51,193,429,45,126,81,171
83,52,168,360,46,137,93,176
80,51,173,371,45,142,91,171
77,54,178,364,45,146,93,160
72,47,152,355,38,163,84,170
73,44,133,334,50,163,91,182
73,44,141,393,50,158,73,172
96,57,177,467,47,176,78,213
99,52,170,453,41,170,79,210
93,51,189,417,46,122,85,190
88,51,193,429,45,126,81,171
83,52,168,360,46,137,93,176
80,51,173,371,45,142,91,171
77,54,178,364,45,146,93,160
72,47,152,355,38,163,84,170
73,44,133,334,50,163,91,182
73,44,141,393,50,158,73,172
72,46,145,405,50,151,77,190
68,45,150,391,51,152,86,203
76,49,150,393,49,142,87,219
85,52,149,391,46,149,88,230
85,51,137,354,51,155,103,241
88,48,136,385,53,165,105,248
90,44,123,407,58,162,110,251
99,41,123,406,60,164,117,320
95,44,130,426,57,166,118,318
102,45,122,387,59,159,110,327
100,44,114,293,58,167,115,320
95,46,133,306,55,184,121,330
76,45,163,401,54,181,114,243
72,38,163,389,61,174,106,233
71,41,171,419,62,174,106,231
73,42,172,434,65,167,103,246
82,45,163,416,64,138,78,226
86,49,149,342,68,138,82,244
97,63,192,368,61,147,88,265
89,60,191,355,56,179,88,252
100,44,114,293,58,167,115,320
95,46,133,306,55,184,121,330
76,45,163,401,54,181,114,243
72,38,163,389,61,174,106,233
71,41,171,419,62,174,106,231
73,42,172,434,65,167,103,246
82,45,163,416,64,138,78,226
86,49,149,342,68,138,82,244
97,63,192,368,61,147,88,265
89,60,191,355,56,179,88,252
99,67,193,357,55,196,118,253
97,68,191,360,59,205,128,262
92,64,170,344,55,206,135,252
82,52,116,312,53,193,136,253
82,54,118,377,57,168,138,259
70,48,144,367,55,144,111,238
73,47,143,346,53,160,104,236
84,54,152,393,54,173,95,235
86,56,157,400,53,180,96,215
99,55,157,342,52,195,97,233
97,59,161,365,56,192,94,238
100,57,163,383,51,175,97,285
95,49,162,356,50,183,91,282
100,53,155,326,54,198,94,304
98,60,160,349,52,178,88,284
104,57,124,332,49,197,104,321
103,57,121,355,57,203,109,297
102,63,175,449,61,189,126,291
101,59,192,526,63,183,126,316
96,54,190,502,59,186,129,331
97,59,161,365,56,192,94,238
100,57,163,383,51,175,97,285
95,49,162,356,50,183,91,282
100,53,155,326,54,198,94,304
98,60,160,349,52,178,88,284
104,57,124,332,49,197,104,321
103,57,121,355,57,203,109,297
102,63,175,449,61,189,126,291
101,59,192,526,63,183,126,316
96,54,190,502,59,186,129,331
90,51,201,527,62,174,127,293
78,49,204,510,54,174,134,261
75,40,164,470,55,168,120,271
67,36,150,454,50,172,126,208
79,37,140,449,56,167,121,220
80,42,126,428,59,160,113,221
89,42,120,425,59,150,93,234
97,43,118,375,52,156,97,227
92,48,121,350,55,155,85,267
79,47,139,386,50,163,92,250
98,48,136,371,39,161,90,265
101,51,144,457,46,160,88,276
96,53,134,451,52,149,83,277
104,49,128,438,51,126,87,245
107,55,132,409,51,116,86,259
95,51,151,496,56,133,91,328
87,51,143,461,52,126,91,322
91,55,145,454,48,143,91,319
85,59,162,431,49,152,96,323
91,51,145,453,49,153,96,302
98,48,136,371,39,161,90,265
101,51,144,457,46,160,88,276
96,53,134,451,52,149,83,277
104,49,128,438,51,126,87,245
107,55,132,409,51,116,86,259
95,51,151,496,56,133,91,328
87,51,143,461,52,126,91,322
91,55,145,454,48,143,91,319
85,59,162,431,49,152,96,323
91,51,145,453,49,153,96,302
96,53,168,478,49,164,97,244
101,58,191,447,52,180,106,263
96,53,189,450,50,167,118,263
101,53,183,559,53,173,111,268
98,54,189,572,53,184,110,285
99,58,165,481,48,180,128,268
96,53,143,487,46,171,120,253
103,52,150,519,50,173,109,272
99,52,138,422,43,177,113,268
93,54,139,381,51,170,107,248
80,53,143,383,53,150,85,228
86,55,145,389,52,150,99,279
83,56,139,335,49,155,107,281
83,56,159,319,50,137,103,266
98,55,151,369,42,132,110,313
97,53,153,425,48,131,105,326
89,49,150,412,51,136,92,272
95,52,157,413,52,145,99,307
93,53,146,394,54,148,111,311
90,51,146,378,56,145,107,264
80,53,143,383,53,150,85,228
86,55,145,389,52,150,99,279
83,56,139,335,49,155,107,281
83,56,159,319,50,137,103,266
98,55,151,369,42,132,110,313
97,53,153,425,48,131,105,326
89,49,150,412,51,136,92,272
95,52,157,413,52,145,99,307
93,53,146,394,54,148,111,311
90,51,146,378,56,145,107,264
91,46,133,319,52,151,108,299
94,46,139,323,55,139,109,304
78,43,140,325,53,131,93,257
78,38,131,337,50,149,86,256
75,51,169,312,50,151,109,338
85,55,169,303,47,173,121,303
88,57,161,298,40,189,126,300
98,59,163,292,44,180,142,354
102,59,158,279,51,177,152,399
97,48,147,299,49,178,134,330
84,45,155,305,49,156,128,342
83,45,154,277,49,151,133,358
88,44,149,312,49,172,123,353
90,45,153,333,45,155,109,315
89,49,141,325,51,181,127,346
89,47,123,362,50,190,122,332
105,59,119,367,55,184,117,326
105,57,116,341,54,203,117,304
103,58,111,364,50,225,128,295
105,55,108,373,51,208,115,263
84,45,155,305,49,156,128,342
83,45,154,277,49,151,133,358
88,44,149,312,49,172,123,353
90,45,153,333,45,155,109,315
89,49,141,325,51,181,127,346
89,47,123,362,50,190,122,332
105,59,119,367,55,184,117,326
105,57,116,341,54,203,117,304
103,58,111,364,50,225,128,295
105,55,108,373,51,208,115,263
119,61,120,356,51,211,116,316
99,51,139,356,47,210,121,305
99,54,139,367,49,191,114,291
97,57,150,338,56,197,106,312
94,61,148,321,51,193,105,322
82,59,139,299,57,182,105,265
91,59,133,314,57,207,112,310
84,61,144,348,58,201,121,320
99,59,166,346,51,188,112,320
100,57,155,344,52,204,115,308
101,58,193,340,49,236,121,352
107,56,205,351,48,226,125,351
105,61,246,434,57,245,121,320
97,61,233,459,58,250,123,317
109,61,234,458,56,247,123,346
105,58,206,471,53,214,117,335
105,59,193,474,55,216,107,328
108,46,151,442,52,188,104,330
101,45,145,453,56,176,111,332
84,44,145,443,58,166,117,313
101,58,193,340,49,236,121,352
107,56,205,351,48,226,125,351
105,61,246,434,57,245,121,320
97,61,233,459,58,250,123,317
109,61,234,458,56,247,123,346
105,58,206,471,53,214,117,335
105,59,193,474,55,216,107,328
108,46,151,442,52,188,104,330
101,45,145,453,56,176,111,332
84,44,145,443,58,166,117,313
109,60,175,481,59,174,121,287
97,58,180,495,56,156,115,265
104,72,188,420,49,162,119,262
112,73,188,374,50,180,120,293
120,74,195,390,49,188,110,295
98,63,187,399,51,183,103,290
103,67,185,381,52,186,100,270
119,61,167,395,57,193,115,416
121,62,175,408,57,167,112,398
129,68,187,407,61,165,118,406
142,73,163,343,57,155,134,449
149,70,153,340,70,194,143,482
136,69,157,376,67,203,133,418
128,67,155,388,65,199,127,413
143,72,170,389,78,195,131,466
145,70,177,386,81,200,138,484
143,76,181,364,73,162,135,456
153,79,193,330,75,154,167,528
166,85,191,328,74,158,168,537
156,76,156,382,64,147,174,486
142,73,163,343,57,155,134,449
149,70,153,340,70,194,143,482
136,69,157,376,67,203,133,418
128,67,155,388,65,199,127,413
143,72,170,389,78,195,131,466
145,70,177,386,81,200,138,484
143,76,181,364,73,162,135,456
153,79,193,330,75,154,167,528
166,85,191,328,74,158,168,537
156,76,156,382,64,147,174,486
153,78,166,392,63,159,158,446
161,73,164,394,59,149,166,529
147,69,137,419,58,165,146,417
140,61,120,398,57,183,146,422
121,58,139,379,50,191,131,413
116,57,151,410,47,191,131,398
94,56,153,431,60,216,116,285
89,47,144,383,55,189,94,282
73,45,145,370,52,167,92,231
71,43,142,324,55,156,82,213
58,35,107,258,65,136,76,180
51,32,97,190,61,90,65,136
56,49,96,213,88,76,56,96
86,52,95,218,104,64,50,65
105,62,70,211,236,73,162,60
127,62,74,235,377,113,187,66
146,70,90,419,522,119,225,83
260,96,107,514,720,154,305,90
304,106,130,627,727,169,376,110
324,111,138,661,733,191,360,128
34,41,116,322,117,101,32,26
38,39,116,353,132,98,37,27
74,39,112,354,137,96,34,29
82,40,110,363,150,97,36,30
85,35,98,374,181,102,42,31
85,36,128,387,179,95,54,31
111,38,122,353,181,91,57,36
100,40,134,394,175,122,68,35
99,42,151,450,220,136,91,45
105,46,149,421,221,144,96,47
128,49,149,453,215,137,99,70
119,52,179,491,208,176,121,82
115,55,197,510,216,165,125,86
118,60,196,491,164,158,116,96
140,65,195,487,139,167,125,108
171,65,191,482,141,179,130,108
166,69,171,464,144,167,120,126
190,78,142,397,124,185,125,145
212,79,156,364,115,230,143,148
211,84,170,364,96,284,142,218
176,90,199,376,93,302,142,276
201,100,221,373,100,307,190,293
188,94,257,436,122,327,262,414
165,90,255,477,124,346,314,431
156,93,263,546,122,342,349,428
164,101,294,711,146,403,378,457
149,107,413,804,141,405,367,545
142,112,404,833,134,422,344,530
154,120,447,884,144,408,307,561
164,115,455,872,156,457,306,605
176,90,199,376,93,302,142,276
201,100,221,373,100,307,190,293
188,94,257,436,122,327,262,414
165,90,255,477,124,346,314,431
156,93,263,546,122,342,349,428
164,101,294,711,146,403,378,457
149,107,413,804,141,405,367,545
142,112,404,833,134,422,344,530
154,120,447,884,144,408,307,561
164,115,455,872,156,457,306,605
190,105,435,796,132,539,415,720
183,94,332,758,131,580,450,660
187,88,348,752,127,575,447,631
191,83,297,708,123,572,461,612
179,92,304,677,109,538,454,589
182,117,326,663,131,426,346,420
223,121,321,617,125,377,301,529
218,123,304,638,118,342,285,565
214,126,299,601,114,331,248,555
264,133,290,653,122,339,238,543
255,117,295,670,96,361,232,579
217,110,324,740,91,386,218,541
222,106,345,712,91,417,228,528
214,100,361,752,85,438,238,539
169,97,376,744,80,433,224,593
167,98,345,672,79,414,210,546
161,97,307,651,91,425,224,503
155,101,298,652,105,433,223,470
151,106,295,648,105,432,217,512
128,97,278,617,105,431,204,430
255,117,295,670,96,361,232,579
217,110,324,740,91,386,218,541
222,106,345,712,91,417,228,528
214,100,361,752,85,438,238,539
169,97,376,744,80,433,224,593
167,98,345,672,79,414,210,546
161,97,307,651,91,425,224,503
155,101,298,652,105,433,223,470
151,106,295,648,105,432,217,512
128,97,278,617,105,431,204,430
150,93,327,759,117,444,254,463
161,98,333,713,116,415,249,515
205,100,304,671,104,391,236,593
221,105,286,630,105,376,241,592
221,115,300,664,117,381,250,631
189,111,268,621,115,335,192,611
186,113,310,656,104,341,177,609
139,118,452,799,107,335,186,524
129,111,450,782,111,320,186,473
118,97,454,804,95,288,182,406
137,102,473,808,84,288,189,453
178,99,455,768,91,295,208,438
185,86,330,643,95,297,200,455
175,80,322,645,87,335,185,446
192,93,287,591,89,345,203,536
188,90,249,559,93,338,188,480
154,86,235,563,88,316,190,441
142,85,216,560,82,339,201,458
179,100,225,583,81,303,206,502
176,86,216,584,83,267,188,502
137,102,473,808,84,288,189,453
178,99,455,768,91,295,208,438
185,86,330,643,95,297,200,455
175,80,322,645,87,335,185,446
192,93,287,591,89,345,203,536
188,90,249,559,93,338,188,480
154,86,235,563,88,316,190,441
142,85,216,560,82,339,201,458
179,100,225,583,81,303,206,502
176,86,216,584,83,267,188,502
176,92,225,506,82,261,199,519
191,95,211,557,102,253,195,505
196,95,212,546,103,267,203,510
170,85,206,548,115,289,207,491
163,91,219,537,114,298,210,476
175,89,195,529,108,324,214,509
168,91,203,518,96,326,215,543
168,92,220,498,97,279,197,521
168,88,217,461,82,313,198,523
190,81,210,450,87,396,248,554
176,82,220,447,85,394,241,528
172,82,209,341,95,390,235,536
186,85,223,353,91,398,237,528
187,92,247,395,90,354,219,509
191,98,244,460,83,258,156,500
196,97,225,460,84,239,172,549
194,98,239,497,60,248,167,502
178,97,217,501,60,239,151,490
176,87,194,472,61,246,177,544
142,87,212,424,57,231,178,473
176,82,220,447,85,394,241,528
172,82,209,341,95,390,235,536
186,85,223,353,91,398,237,528
187,92,247,395,90,354,219,509
191,98,244,460,83,258,156,500
196,97,225,460,84,239,172,549
194,98,239,497,60,248,167,502
178,97,217,501,60,239,151,490
176,87,194,472,61,246,177,544
142,87,212,424,57,231,178,473
130,88,226,422,60,214,163,394
135,93,232,483,63,197,158,385
142,89,225,489,68,180,175,413
135,98,243,548,71,163,153,363
158,96,230,532,76,191,159,380
170,92,233,602,84,220,150,408
150,84,237,556,83,224,170,433
143,83,237,535,81,242,157,435
178,94,227,493,87,276,165,417
164,89,231,573,85,282,151,390
159,89,199,502,77,265,151,375
171,89,182,482,77,250,123,356
166,93,204,509,75,240,120,332
138,80,191,551,67,204,113,326
128,80,180,482,63,192,128,326
116,78,191,498,69,190,152,297
114,75,176,479,66,202,157,298
118,72,178,535,72,238,175,346
112,73,202,488,70,242,175,360
113,73,202,489,71,234,167,352
159,89,199,502,77,265,151,375
171,89,182,482,77,250,123,356
166,93,204,509,75,240,120,332
138,80,191,551,67,204,113,326
128,80,180,482,63,192,128,326
116,78,191,498,69,190,152,297
114,75,176,479,66,202,157,298
118,72,178,535,72,238,175,346
112,73,202,488,70,242,175,360
113,73,202,489,71,234,167,352
130,73,206,446,70,231,164,422
128,77,230,506,77,229,169,452
132,87,227,484,72,188,154,444
132,89,217,465,71,175,166,459
149,91,253,561,70,174,171,478
157,107,269,582,69,191,153,413
162,111,270,581,65,202,179,450
154,105,269,527,64,204,173,410
153,101,262,555,63,230,167,382
141,99,243,465,60,253,170,396
118,82,245,434,54,242,180,415
142,88,224,379,52,222,144,387
154,91,211,419,59,236,152,446
156,94,215,477,60,206,146,447
166,100,212,494,62,181,158,439
169,98,206,497,57,186,149,443
134,84,198,501,67,199,150,398
135,93,202,463,63,168,140,357
128,89,223,437,66,170,138,392
111,83,222,462,63,155,131,357
118,82,245,434,54,242,180,415
142,88,224,379,52,222,144,387
154,91,211,419,59,236,152,446
156,94,215,477,60,206,146,447
166,100,212,494,62,181,158,439
169,98,206,497,57,186,149,443
134,84,198,501,67,199,150,398
135,93,202,463,63,168,140,357
128,89,223,437,66,170,138,392
111,83,222,462,63,155,131,357
115,97,219,495,66,160,133,343
121,94,218,515,58,167,132,350
112,85,215,527,57,178,130,314
110,83,193,478,54,185,127,265
116,90,196,420,68,190,98,296
116,94,251,397,72,184,86,273
113,96,263,378,72,180,90,349
106,97,284,439,73,182,132,387
117,98,290,464,77,191,150,375
113,87,280,478,68,221,161,368
145,84,212,448,64,217,177,463
140,93,229,459,62,205,177,416
145,94,201,386,63,207,149,390
138,92,194,357,63,187,133,411
137,95,201,373,63,168,121,405
119,79,219,409,64,209,122,355
139,67,209,385,72,242,159,453
133,56,208,382,67,285,171,453
141,56,201,415,68,295,184,460
149,58,214,417,66,280,193,443
145,84,212,448,64,217,177,463
140,93,229,459,62,205,177,416
145,94,201,386,63,207,149,390
138,92,194,357,63,187,133,411
137,95,201,373,63,168,121,405
119,79,219,409,64,209,122,355
139,67,209,385,72,242,159,453
133,56,208,382,67,285,171,453
141,56,201,415,68,295,184,460
149,58,214,417,66,280,193,443
126,55,206,402,64,247,179,393
106,62,189,443,67,259,156,271
118,66,196,451,69,209,147,326
116,71,210,518,71,205,131,318
101,79,205,482,69,213,123,323
99,80,198,463,82,234,127,346
101,81,222,561,75,193,113,360
94,81,225,566,75,206,123,346
82,79,229,513,74,224,128,350
91,84,232,577,81,229,131,379
101,100,239,595,68,217,127,362
99,101,230,472,70,214,139,338
106,100,233,506,72,245,141,315
112,103,223,525,68,222,144,283
113,94,211,461,68,227,144,258
130,89,208,449,68,220,143,331
131,85,193,461,76,221,137,344
126,83,176,449,78,166,121,353
132,78,175,377,80,173,115,413
143,75,161,371,77,170,118,457
101,100,239,595,68,217,127,362
99,101,230,472,70,214,139,338
106,100,233,506,72,245,141,315
112,103,223,525,68,222,144,283
113,94,211,461,68,227,144,258
130,89,208,449,68,220,143,331
131,85,193,461,76,221,137,344
126,83,176,449,78,166,121,353
132,78,175,377,80,173,115,413
143,75,161,371,77,170,118,457
130,60,154,383,76,189,142,412
168,70,169,382,74,206,140,466
163,75,185,349,70,226,148,447
161,80,193,410,67,235,146,430
145,81,189,433,63,230,144,397
141,82,190,474,71,231,131,413
118,83,195,535,64,210,151,433
131,84,180,530,70,200,143,435
136,89,186,526,71,179,147,441
145,91,198,511,74,204,157,448
142,87,194,487,70,199,152,438
122,77,179,426,70,231,140,349
117,69,175,431,61,221,153,383
109,54,153,377,59,236,160,370
98,42,139,355,54,212,146,331
99,46,141,358,51,235,151,369
96,45,148,351,44,205,140,345
88,52,148,342,52,215,133,322
98,59,145,339,63,206,123,351
113,71,163,346,66,214,130,365
142,87,194,487,70,199,152,438
122,77,179,426,70,231,140,349
117,69,175,431,61,221,153,383
109,54,153,377,59,236,160,370
98,42,139,355,54,212,146,331
99,46,141,358,51,235,151,369
96,45,148,351,44,205,140,345
88,52,148,342,52,215,133,322
98,59,145,339,63,206,123,351
113,71,163,346,66,214,130,365
113,69,176,337,64,183,120,331
111,71,174,342,65,192,121,335
110,69,172,386,66,184,120,336
94,65,167,411,58,178,117,272
83,58,185,475,60,157,96,289
109,68,193,448,64,167,124,356
136,70,180,441,67,162,138,426
139,70,201,429,62,152,131,414
146,71,226,471,61,153,130,415
145,68,206,420,58,149,131,409
143,67,186,448,59,178,106,388
121,62,205,448,53,189,101,345
126,70,192,416,52,185,103,389
116,68,166,365,50,208,116,394
109,69,164,356,49,226,137,398
109,70,174,342,47,198,143,387
110,80,185,334,49,193,143,384
103,73,201,376,48,209,152,357
120,73,201,381,46,188,170,489
128,77,194,371,58,179,156,480
143,67,186,448,59,178,106,388
121,62,205,448,53,189,101,345
126,70,192,416,52,185,103,389
116,68,166,365,50,208,116,394
109,69,164,356,49,226,137,398
109,70,174,342,47,198,143,387
110,80,185,334,49,193,143,384
103,73,201,376,48,209,152,357
120,73,201,381,46,188,170,489
128,77,194,371,58,179,156,480
116,72,186,389,54,193,154,454
123,62,154,411,52,206,147,466
120,61,129,380,52,200,148,450
106,61,155,380,56,205,118,292
111,56,160,409,44,208,136,364
131,58,171,410,43,200,133,384
136,70,179,427,42,203,141,341
147,71,179,454,41,201,136,374
153,78,165,476,45,204,140,389
144,77,176,456,49,195,125,318
129,82,170,465,51,183,141,301
117,80,170,442,60,167,142,329
116,87,179,431,70,193,157,323
111,86,195,390,70,179,170,368
109,86,185,413,71,178,167,390
97,79,187,377,77,186,151,399
91,85,220,359,77,181,143,405
98,82,217,366,71,187,126,412
92,76,224,360,66,206,126,372
91,78,240,331,67,213,133,374
129,82,170,465,51,183,141,301
117,80,170,442,60,167,142,329
116,87,179,431,70,193,157,323
111,86,195,390,70,179,170,368
109,86,185,413,71,178,167,390
97,79,187,377,77,186,151,399
91,85,220,359,77,181,143,405
98,82,217,366,71,187,126,412
92,76,224,360,66,206,126,372
91,78,240,331,67,213,133,374
115,85,241,335,57,208,153,439
120,74,202,337,53,202,149,432
107,68,208,366,52,174,151,417
113,69,176,354,56,175,142,412
123,68,168,378,57,175,145,413
133,68,167,412,57,187,162,426
130,72,196,446,58,200,167,405
128,71,197,442,66,194,166,405
122,71,206,446,67,183,157,388
126,70,193,425,67,177,146,351
122,60,178,368,86,152,94,201
124,55,140,314,91,128,82,191
137,67,110,255,94,120,64,123
151,66,88,236,101,122,54,100
145,70,84,256,103,106,44,78
130,71,95,265,90,122,40,53
134,67,95,240,96,155,38,45
163,56,98,216,92,165,41,46
182,63,92,213,92,189,44,48
192,56,87,197,146,198,154,70
122,60,178,368,86,152,94,201
124,55,140,314,91,128,82,191
137,67,110,255,94,120,64,123
151,66,88,236,101,122,54,100
145,70,84,256,103,106,44,78
130,71,95,265,90,122,40,53
134,67,95,240,96,155,38,45
163,56,98,216,92,165,41,46
182,63,92,213,92,189,44,48
192,56,87,197,146,198,154,70
189,68,105,332,264,189,167,79
209,75,140,588,406,170,169,78
189,80,147,686,452,168,231,79
164,79,152,757,472,135,324,88
188,94,170,901,582,162,367,93
256,95,185,918,586,176,395,121
284,108,205,870,518,204,422,126
286,114,225,843,493,204,435,137
299,124,245,871,567,211,515,152
318,124,240,768,580,204,502,163
285,124,235,781,559,214,490,165
301,136,222,764,584,186,504,174
318,137,209,741,677,187,524,174
317,131,194,713,636,181,454,170
280,121,187,709,518,172,425,158
261,113,162,693,516,167,417,135
205,82,125,690,536,179,375,120
168,68,108,766,441,169,293,107
156,56,86,719,400,167,166,83
198,68,91,684,409,154,120,69
101,72,221,343,126,122,68,46
111,67,226,399,141,137,70,53
117,66,209,405,144,181,129,54
123,58,181,392,149,182,157,60
134,61,170,378,148,185,156,57
117,61,145,336,147,192,162,64
124,62,113,290,132,205,193,85
128,62,116,264,116,176,169,95
133,65,115,277,115,163,152,130
177,76,147,336,104,169,167,200
195,78,161,327,97,239,206,338
211,83,193,387,100,278,255,377
214,93,219,430,96,394,334,477
227,106,229,455,99,498,347,590
203,96,229,449,106,516,343,584
217,113,250,507,110,514,338,541
222,131,246,498,116,509,325,560
223,132,226,506,116,446,333,514
237,140,235,518,115,353,350,467
230,146,232,528,102,378,355,495
202,138,215,502,93,376,365,535
181,141,283,507,88,366,351,492
188,150,334,565,92,374,272,546
154,140,336,601,80,388,246,504
145,132,338,565,89,368,247,477
142,130,334,590,93,356,245,437
132,110,281,590,98,373,242,460
154,92,220,537,93,343,253,450
164,82,199,477,94,313,244,481
177,85,193,551,85,323,248,524
202,138,215,502,93,376,365,535
181,141,283,507,88,366,351,492
188,150,334,565,92,374,272,546
154,140,336,601,80,388,246,504
145,132,338,565,89,368,247,477
142,130,334,590,93,356,245,437
132,110,281,590,98,373,242,460
154,92,220,537,93,343,253,450
164,82,199,477,94,313,244,481
177,85,193,551,85,323,248,524
180,82,206,490,80,343,210,508
174,76,194,448,66,333,183,485
146,72,189,438,70,345,190,429
128,78,203,485,87,342,191,368
174,77,190,406,91,305,168,357
173,90,194,422,94,264,169,376
187,91,191,501,99,235,176,448
231,95,196,480,95,233,144,470
256,108,222,424,77,230,156,482
236,106,217,418,71,225,201,497
244,93,202,453,69,213,209,490
246,92,215,408,64,223,213,441
215,87,227,447,67,223,221,423
198,71,204,451,67,254,209,440
190,71,214,467,72,270,177,373
181,73,223,459,71,298,170,394
183,86,201,442,68,290,172,425
200,84,193,403,70,299,192,438
186,80,178,451,74,266,193,437
178,86,173,447,78,243,188,448
244,93,202,453,69,213,209,490
246,92,215,408,64,223,213,441
215,87,227,447,67,223,221,423
198,71,204,451,67,254,209,440
190,71,214,467,72,270,177,373
181,73,223,459,71,298,170,394
183,86,201,442,68,290,172,425
200,84,193,403,70,299,192,438
186,80,178,451,74,266,193,437
178,86,173,447,78,243,188,448
196,88,170,433,78,198,184,486
178,72,172,459,77,221,176,474
144,74,181,512,84,217,149,440
148,73,183,470,82,241,150,412
171,83,196,487,76,265,161,420
143,82,185,476,74,276,155,334
157,89,194,432,79,287,166,313
174,91,194,393,70,273,156,328
168,89,193,414,67,293,183,324
143,73,175,397,61,281,169,288
157,81,211,452,64,282,171,330
146,83,215,494,59,248,151,336
177,84,214,453,56,271,169,345
179,89,213,418,56,234,145,376
191,97,223,508,66,222,163,441
184,89,192,468,63,242,160,438
192,98,233,444,63,262,164,431
144,99,223,462,70,224,144,418
144,94,228,471,77,230,161,405
128,86,224,381,78,250,185,332
157,81,211,452,64,282,171,330
146,83,215,494,59,248,151,336
177,84,214,453,56,271,169,345
179,89,213,418,56,234,145,376
191,97,223,508,66,222,163,441
184,89,192,468,63,242,160,438
192,98,233,444,63,262,164,431
144,99,223,462,70,224,144,418
144,94,228,471,77,230,161,405
128,86,224,381,78,250,185,332
125,86,233,363,82,235,203,314
124,77,225,371,82,242,210,324
142,81,235,348,73,247,214,308
144,85,247,326,70,250,188,326
158,91,263,335,63,240,169,379
172,95,258,351,58,232,147,387
174,91,215,323,58,199,133,378
157,84,206,338,58,225,135,438
154,79,179,352,64,229,139,419
139,72,170,407,65,213,114,377
119,74,187,408,62,253,122,377
106,80,211,423,59,271,119,368
111,78,209,446,71,249,107,341
112,84,217,453,62,234,114,433
139,89,231,410,72,249,130,457
167,86,209,401,74,204,125,464
166,76,187,380,84,177,140,489
180,75,192,394,78,193,142,491
180,71,187,389,76,192,139,412
176,65,170,366,69,190,130,398
119,74,187,408,62,253,122,377
106,80,211,423,59,271,119,368
111,78,209,446,71,249,107,341
112,84,217,453,62,234,114,433
139,89,231,410,72,249,130,457
167,86,209,401,74,204,125,464
166,76,187,380,84,177,140,489
180,75,192,394,78,193,142,491
180,71,187,389,76,192,139,412
176,65,170,366,69,190,130,398
161,62,162,354,70,202,152,415
178,60,163,334,68,217,137,409
167,60,146,285,70,217,139,386
178,62,151,310,71,230,149,382
163,65,158,326,70,215,149,365
156,66,178,361,67,205,131,336
136,69,182,384,65,189,134,316
139,75,247,500,58,187,137,364
136,81,252,495,61,162,123,360
156,87,234,469,55,187,116,417
158,91,246,504,55,186,111,401
161,89,247,507,54,213,133,421
158,84,198,492,58,198,124,402
153,81,197,508,55,218,121,413
153,72,209,561,58,200,129,358
157,65,186,571,57,197,125,406
154,67,189,584,56,189,113,400
147,68,195,533,55,195,123,400
175,66,195,507,55,181,134,453
155,63,179,452,52,208,134,458
158,91,246,504,55,186,111,401
161,89,247,507,54,213,133,421
158,84,198,492,58,198,124,402
153,81,197,508,55,218,121,413
153,72,209,561,58,200,129,358
157,65,186,571,57,197,125,406
154,67,189,584,56,189,113,400
147,68,195,533,55,195,123,400
175,66,195,507,55,181,134,453
155,63,179,452,52,208,134,458
148,69,184,467,52,218,157,466
158,72,217,473,48,202,153,504
187,82,223,539,45,200,158,499
155,76,218,544,43,191,154,446
155,79,232,547,51,169,154,443
174,82,236,481,52,167,156,419
168,79,195,454,53,157,153,374
145,72,185,470,66,242,166,418
156,73,181,484,75,247,159,422
166,77,186,494,74,267,162,426
152,80,211,498,77,273,147,408
146,83,223,483,75,297,164,429
137,79,214,352,68,227,135,354
121,84,229,345,59,222,142,318
148,90,210,321,53,217,145,326
137,79,178,341,53,198,156,381
142,78,214,472,59,179,139,345
147,89,248,509,66,250,163,351
160,92,240,533,74,255,164,381
150,88,253,610,80,232,161,371
152,80,211,498,77,273,147,408
146,83,223,483,75,297,164,429
137,79,214,352,68,227,135,354
121,84,229,345,59,222,142,318
148,90,210,321,53,217,145,326
137,79,178,341,53,198,156,381
142,78,214,472,59,179,139,345
147,89,248,509,66,250,163,351
160,92,240,533,74,255,164,381
150,88,253,610,80,232,161,371
163,88,256,582,76,236,144,320
167,92,217,505,75,233,144,304
176,87,195,488,68,164,122,364
171,80,183,451,59,162,110,371
151,74,181,395,52,175,114,372
151,79,173,394,55,213,130,377
149,74,187,390,54,223,126,390
144,71,162,410,50,229,123,326
143,72,170,459,53,226,130,284
148,70,160,420,55,249,123,302
171,74,158,439,52,222,111,338
170,71,143,423,53,211,106,330
169,69,137,394,56,216,115,338
183,71,152,351,54,213,107,372
200,69,158,402,49,174,122,402
175,57,158,391,55,190,127,350
185,65,150,400,54,194,129,356
177,63,155,376,50,180,126,356
157,61,153,345,49,191,128,328
135,70,142,259,52,194,116,279
171,74,158,439,52,222,111,338
170,71,143,423,53,211,106,330
169,69,137,394,56,216,115,338
183,71,152,351,54,213,107,372
200,69,158,402,49,174,122,402
175,57,158,391,55,190,127,350
185,65,150,400,54,194,129,356
177,63,155,376,50,180,126,356
157,61,153,345,49,191,128,328
135,70,142,259,52,194,116,279
131,73,150,258,48,178,110,275
107,71,161,253,53,168,114,294
115,72,166,255,54,165,118,300
126,76,160,276,59,172,125,306
114,69,164,330,59,164,114,280
117,64,169,411,60,159,104,272
129,62,176,424,59,169,98,294
135,61,173,434,59,178,109,341
123,57,169,447,52,159,108,330
130,57,170,430,54,192,125,385
145,65,161,346,52,203,136,408
137,67,177,351,48,190,132,372
137,71,187,372,49,183,142,316
146,71,179,376,52,185,152,350
151,68,171,382,55,179,140,312
137,68,163,400,57,176,136,292
133,62,148,422,67,184,138,284
127,61,133,441,69,193,117,311
129,75,195,487,70,221,95,293
113,76,209,483,67,218,124,315
145,65,161,346,52,203,136,408
137,67,177,351,48,190,132,372
137,71,187,372,49,183,142,316
146,71,179,376,52,185,152,350
151,68,171,382,55,179,140,312
137,68,163,400,57,176,136,292
133,62,148,422,67,184,138,284
127,61,133,441,69,193,117,311
129,75,195,487,70,221,95,293
113,76,209,483,67,218,124,315
139,75,211,465,74,233,130,319
141,77,205,446,77,238,144,361
145,75,215,409,76,223,143,343
137,56,157,314,73,210,146,332
135,55,142,303,73,200,127,327
113,49,145,302,66,187,130,353
108,42,134,274,59,170,118,305
109,42,117,266,59,181,114,310
107,42,135,283,60,162,121,311
147,51,140,287,56,150,120,293
140,52,134,282,53,175,109,243
140,49,139,338,46,198,113,248
137,56,138,329,49,220,118,232
141,60,137,322,51,228,111,223
100,55,130,364,56,232,110,210
103,68,145,396,64,199,123,238
98,71,133,349,63,182,115,229
104,69,148,368,60,148,108,231
111,70,160,412,60,162,111,237
135,69,185,387,58,175,115,304
140,52,134,282,53,175,109,243
140,49,139,338,46,198,113,248
137,56,138,329,49,220,118,232
141,60,137,322,51,228,111,223
100,55,130,364,56,232,110,210
103,68,145,396,64,199,123,238
98,71,133,349,63,182,115,229
104,69,148,368,60,148,108,231
111,70,160,412,60,162,111,237
135,69,185,387,58,175,115,304
155,68,176,374,50,187,98,318
161,65,182,388,56,198,100,353
156,63,170,379,58,201,102,340
153,63,151,361,56,199,92,339
139,67,139,352,57,188,85,298
141,61,167,363,59,183,93,303
143,62,167,333,53,182,93,270
145,59,182,361,48,195,128,382
137,62,195,360,57,201,142,385
130,57,181,385,55,202,146,370
113,61,158,405,55,244,159,343
106,61,154,430,56,251,164,347
103,68,149,456,57,244,137,245
104,71,176,473,56,233,128,240
113,73,182,455,57,247,139,253
97,69,178,425,56,219,124,264
108,77,195,449,60,212,119,258
111,74,188,431,61,206,117,299
109,69,165,415,53,199,118,367
100,64,162,412,56,204,124,411
113,61,158,405,55,244,159,343
106,61,154,430,56,251,164,347
103,68,149,456,57,244,137,245
104,71,176,473,56,233,128,240
113,73,182,455,57,247,139,253
97,69,178,425,56,219,124,264
108,77,195,449,60,212,119,258
111,74,188,431,61,206,117,299
109,69,165,415,53,199,118,367
100,64,162,412,56,204,124,411
113,67,173,398,55,196,122,406
106,57,169,368,52,198,117,407
106,60,179,340,57,222,128,388
109,60,162,298,57,224,124,340
110,69,190,292,52,200,99,289
103,65,191,304,54,195,97,281
97,69,200,290,53,197,100,308
95,67,200,335,54,202,97,299
95,65,202,389,61,208,100,305
109,59,171,397,65,220,101,317
104,60,155,407,62,226,97,338
109,63,143,475,69,223,95,316
100,64,140,466,64,201,90,304
91,62,134,438,60,235,86,285
63,63,149,453,56,233,102,276
60,64,160,454,56,230,109,319
57,64,153,373,49,243,125,340
61,64,145,352,48,234,126,345
73,66,150,357,49,203,128,353
85,66,139,331,50,191,115,385
104,60,155,407,62,226,97,338
109,63,143,475,69,223,95,316
100,64,140,466,64,201,90,304
91,62,134,438,60,235,86,285
63,63,149,453,56,233,102,276
60,64,160,454,56,230,109,319
57,64,153,373,49,243,125,340
61,64,145,352,48,234,126,345
73,66,150,357,49,203,128,353
85,66,139,331,50,191,115,385
92,62,132,419,54,218,129,418
92,62,127,434,56,194,130,405
103,73,149,414,55,199,142,413
106,78,157,405,58,205,170,496
98,76,168,437,55,214,171,474
96,74,172,357,51,182,168,411
91,69,174,343,51,179,161,412
93,52,150,367,54,178,147,417
90,46,135,427,55,204,116,319
90,48,138,396,56,199,135,314
98,53,138,408,59,199,128,340
111,53,133,433,62,241,130,364
111,58,139,439,66,286,130,350
106,62,174,399,61,263,141,335
120,65,167,403,62,262,130,368
117,68,178,384,61,257,137,348
118,79,185,367,57,227,129,306
110,80,193,402,58,190,130,328
114,75,175,389,59,209,114,324
98,70,169,374,60,202,108,274
98,53,138,408,59,199,128,340
111,53,133,433,62,241,130,364
111,58,139,439,66,286,130,350
106,62,174,399,61,263,141,335
120,65,167,403,62,262,130,368
117,68,178,384,61,257,137,348
118,79,185,367,57,227,129,306
110,80,193,402,58,190,130,328
114,75,175,389,59,209,114,324
98,70,169,374,60,202,108,274
100,65,146,428,59,215,114,331
98,53,143,452,58,247,139,336
96,47,126,413,53,244,152,358
92,50,116,403,54,223,158,394
99,58,169,441,56,227,156,402
87,65,196,404,56,221,145,335
90,61,190,355,52,173,120,327
130,67,194,344,64,142,97,258
139,73,193,422,183,131,144,186
155,79,157,431,253,124,242,151
190,84,135,523,372,121,292,136
219,99,145,601,552,136,379,162
212,103,171,801,598,133,394,166
230,109,181,779,603,131,393,162
247,107,185,808,624,125,354,148
239,110,205,882,588,124,320,146
221,106,195,860,464,117,254,101
209,98,173,723,411,133,309,84
184,86,154,704,386,145,323,75
158,80,137,717,337,148,309,64
147,59,178,476,166,126,92,69
177,57,183,453,145,132,95,86
188,60,183,449,137,139,89,132
181,63,191,445,136,147,80,138
170,62,159,365,149,144,76,168
173,67,165,358,147,161,74,258
159,70,165,319,144,153,93,277
179,67,155,329,140,154,98,374
172,68,148,327,131,223,103,383
174,76,178,342,145,233,114,386
206,78,172,332,169,237,139,391
215,82,170,388,188,284,166,397
242,83,178,410,198,301,176,344
268,83,184,412,190,256,182,379
270,76,182,414,161,252,176,395
251,80,183,435,134,247,165,368
246,78,216,465,109,222,139,400
204,84,267,638,96,207,139,366
202,90,272,661,120,216,128,366
216,125,267,638,133,227,128,398
228,122,285,638,132,252,149,464
219,127,255,609,135,245,148,451
214,122,198,407,132,250,156,489
197,128,210,399,120,241,173,463
186,102,199,484,109,238,183,438
157,100,181,475,118,216,166,352
165,95,198,446,116,231,161,365
157,94,204,504,124,237,154,330
147,78,177,472,114,259,141,372
171,92,209,393,104,255,126,418
228,122,285,638,132,252,149,464
219,127,255,609,135,245,148,451
214,122,198,407,132,250,156,489
197,128,210,399,120,241,173,463
186,102,199,484,109,238,183,438
157,100,181,475,118,216,166,352
165,95,198,446,116,231,161,365
157,94,204,504,124,237,154,330
147,78,177,472,114,259,141,372
171,92,209,393,104,255,126,418
186,100,216,416,95,247,133,415
183,95,206,418,94,218,137,400
209,104,222,341,83,208,136,431
218,115,226,339,89,209,153,410
194,105,224,370,92,223,174,351
188,98,210,426,88,229,166,391
185,100,213,449,87,231,163,377
175,103,210,466,81,223,166,374
173,93,208,485,74,197,156,362
167,87,190,539,69,203,134,348
161,93,198,467,67,187,143,345
159,92,204,481,62,183,158,382
154,82,185,458,60,199,150,341
160,87,208,433,52,220,138,345
196,85,208,342,55,201,143,373
201,76,206,351,64,217,153,381
200,78,202,298,74,263,165,419
192,79,238,337,75,254,159,420
170,71,228,396,81,242,154,412
155,75,218,415,82,255,154,460
161,93,198,467,67,187,143,345
159,92,204,481,62,183,158,382
154,82,185,458,60,199,150,341
160,87,208,433,52,220,138,345
196,85,208,342,55,201,143,373
201,76,206,351,64,217,153,381
200,78,202,298,74,263,165,419
192,79,238,337,75,254,159,420
170,71,228,396,81,242,154,412
155,75,218,415,82,255,154,460
154,87,214,418,81,250,145,441
152,86,206,410,78,209,147,390
156,100,183,423,76,206,162,411
156,101,171,376,71,221,170,419
144,95,187,462,69,206,167,372
156,95,208,468,67,202,179,377
184,100,208,491,61,224,158,357
200,98,225,466,62,223,150,347
204,97,224,457,72,194,145,389
196,96,209,398,73,231,156,369
192,91,188,385,69,234,145,417
167,85,196,388,67,221,140,416
159,71,168,367,71,219,133,442
163,71,179,417,66,268,143,445
171,75,174,363,65,242,143,490
172,78,170,353,63,246,144,428
167,77,168,308,66,234,140,441
152,75,147,335,66,231,138,406
153,79,143,374,72,179,154,373
144,74,162,378,68,193,147,345
192,91,188,385,69,234,145,417
167,85,196,388,67,221,140,416
159,71,168,367,71,219,133,442
163,71,179,417,66,268,143,445
171,75,174,363,65,242,143,490
172,78,170,353,63,246,144,428
167,77,168,308,66,234,140,441
152,75,147,335,66,231,138,406
153,79,143,374,72,179,154,373
144,74,162,378,68,193,147,345
128,65,155,418,70,186,138,422
170,71,176,443,72,190,161,426
172,70,215,453,68,209,175,463
165,66,225,374,60,230,155,448
190,73,218,364,62,213,151,460
203,71,226,350,63,218,155,437
192,70,210,392,68,237,129,418
193,76,171,364,77,231,127,431
196,73,153,432,74,214,133,468
168,67,141,438,80,202,135,464
161,73,144,466,89,229,128,419
142,71,126,427,87,215,145,444
136,70,143,497,79,212,147,402
146,76,151,483,79,230,143,401
170,76,187,522,79,242,148,365
169,70,191,527,72,224,151,380
164,66,197,604,70,225,135,339
182,72,210,598,69,235,131,328
177,77,229,595,73,211,127,284
169,78,207,555,64,224,134,289
161,73,144,466,89,229,128,419
142,71,126,427,87,215,145,444
136,70,143,497,79,212,147,402
146,76,151,483,79,230,143,401
170,76,187,522,79,242,148,365
169,70,191,527,72,224,151,380
164,66,197,604,70,225,135,339
182,72,210,598,69,235,131,328
177,77,229,595,73,211,127,284
169,78,207,555,64,224,134,289
167,81,195,519,60,231,133,302
162,82,208,474,58,225,137,314
165,75,188,422,55,207,131,324
168,71,175,409,51,221,144,378
149,67,183,444,53,247,158,369
143,68,193,443,51,242,159,351
148,71,191,382,55,247,162,390
138,78,188,370,61,245,163,399
135,73,163,329,65,232,154,397
154,82,155,327,66,193,146,472
187,79,154,343,73,190,150,503
184,76,135,333,69,195,151,486
167,67,188,377,67,212,152,475
157,69,192,374,63,209,144,430
141,59,184,341,59,225,126,349
133,73,192,334,60,218,110,327
140,82,209,395,60,201,98,319
185,88,159,383,59,181,110,394
186,87,189,397,61,198,120,452
194,86,208,388,60,171,118,462
187,79,154,343,73,190,150,503
184,76,135,333,69,195,151,486
167,67,188,377,67,212,152,475
157,69,192,374,63,209,144,430
141,59,184,341,59,225,126,349
133,73,192,334,60,218,110,327
140,82,209,395,60,201,98,319
185,88,159,383,59,181,110,394
186,87,189,397,61,198,120,452
194,86,208,388,60,171,118,462
174,74,194,377,55,178,120,456
172,65,177,322,53,188,127,453
130,58,183,400,61,210,109,378
137,58,170,481,58,199,117,321
134,75,175,522,60,198,129,340
126,74,183,536,61,202,138,365
125,75,194,553,65,246,140,396
124,72,196,483,57,226,137,409
118,71,213,475,65,234,137,434
128,52,210,452,70,229,124,486
130,54,201,427,69,211,117,466
132,70,214,412,74,147,113,460
142,76,211,396,75,182,136,473
142,75,176,360,71,206,121,450
133,73,152,358,68,206,125,352
136,75,157,357,76,211,136,390
130,60,139,339,68,203,136,390
107,55,156,360,70,204,128,380
109,58,158,279,67,174,148,385
136,75,171,322,66,194,151,400
130,54,201,427,69,211,117,466
132,70,214,412,74,147,113,460
142,76,211,396,75,182,136,473
142,75,176,360,71,206,121,450
133,73,152,358,68,206,125,352
136,75,157,357,76,211,136,390
130,60,139,339,68,203,136,390
107,55,156,360,70,204,128,380
109,58,158,279,67,174,148,385
136,75,171,322,66,194,151,400
151,73,168,332,58,211,142,402
162,80,155,350,57,226,143,373
168,78,134,364,58,198,143,376
181,80,138,415,57,193,129,387
165,73,161,464,54,175,119,367
157,74,170,463,55,176,121,296
148,66,181,458,58,215,130,286
148,64,183,457,57,215,123,291
125,58,187,419,57,217,117,262
123,58,184,353,62,228,135,333
114,64,190,399,58,213,142,358
111,72,192,402,64,160,138,367
112,75,197,430,60,183,142,361
129,75,192,458,61,202,153,360
162,69,177,450,58,190,144,359
174,63,164,465,60,189,146,363
188,65,157,460,55,198,138,355
182,72,162,446,65,198,131,365
174,72,185,480,66,172,137,408
177,78,194,480,69,190,146,415
114,64,190,399,58,213,142,358
111,72,192,402,64,160,138,367
112,75,197,430,60,183,142,361
129,75,192,458,61,202,153,360
162,69,177,450,58,190,144,359
174,63,164,465,60,189,146,363
188,65,157,460,55,198,138,355
182,72,162,446,65,198,131,365
174,72,185,480,66,172,137,408
177,78,194,480,69,190,146,415
175,81,203,446,69,194,132,415
185,85,209,452,63,187,142,435
199,81,209,423,53,188,146,418
233,88,195,372,49,203,137,452
209,84,178,389,47,186,131,397
203,81,172,367,45,171,147,441
180,72,159,360,48,187,152,440
172,70,159,409,52,174,152,447
148,68,163,411,58,162,149,378
149,68,160,418,70,182,164,388
151,67,161,420,70,191,169,331
155,65,160,466,70,173,168,296
160,75,197,421,69,193,167,335
139,75,191,407,72,219,190,400
144,87,207,345,60,210,175,395
159,90,204,340,67,223,164,413
160,100,213,271,71,233,165,421
165,101,185,320,78,226,160,384
168,99,183,313,75,205,128,295
160,96,194,373,77,202,128,314
151,67,161,420,70,191,169,331
155,65,160,466,70,173,168,296
160,75,197,421,69,193,167,335
139,75,191,407,72,219,190,400
144,87,207,345,60,210,175,395
159,90,204,340,67,223,164,413
160,100,213,271,71,233,165,421
165,101,185,320,78,226,160,384
168,99,183,313,75,205,128,295
160,96,194,373,77,202,128,314
158,95,196,386,70,189,125,270
161,83,182,368,65,182,112,291
161,76,183,396,64,173,128,343
155,79,192,408,57,189,129,364
162,73,159,372,59,187,125,360
162,71,170,369,61,183,116,380
158,74,214,426,71,182,120,399
171,90,203,375,69,174,106,357
175,86,201,355,71,173,141,377
178,85,212,369,71,177,144,413
158,85,204,449,75,188,154,410
161,84,162,430,72,223,152,399
156,66,187,516,71,223,154,397
166,59,186,556,69,227,127,347
157,66,190,533,64,230,126,349
177,72,207,459,60,228,111,359
172,72,228,492,60,206,113,346
151,75,221,413,56,205,120,353
145,99,219,390,56,204,123,369
135,94,238,473,66,214,114,340
158,85,204,449,75,188,154,410
161,84,162,430,72,223,152,399
156,66,187,516,71,223,154,397
166,59,186,556,69,227,127,347
157,66,190,533,64,230,126,349
177,72,207,459,60,228,111,359
172,72,228,492,60,206,113,346
151,75,221,413,56,205,120,353
145,99,219,390,56,204,123,369
135,94,238,473,66,214,114,340
124,93,235,488,69,204,131,376
139,100,234,445,65,197,148,449
154,96,219,460,68,199,143,461
148,71,215,449,68,205,139,481
153,75,198,424,66,192,146,492
153,72,181,415,61,216,136,452
137,63,175,428,62,229,123,401
128,76,208,479,65,222,136,440
145,80,229,509,69,216,156,465
148,72,222,471,69,241,160,429
141,71,224,470,69,228,165,437
143,69,231,474,70,212,162,424
134,58,209,400,66,219,153,361
125,56,199,348,70,189,150,350
150,60,191,335,64,157,143,355
154,62,200,327,67,209,150,379
156,62,180,285,69,216,157,406
160,64,195,326,67,224,156,415
176,80,194,378,63,232,139,416
153,82,213,521,64,238,148,422
141,71,224,470,69,228,165,437
143,69,231,474,70,212,162,424
134,58,209,400,66,219,153,361
125,56,199,348,70,189,150,350
150,60,191,335,64,157,143,355
154,62,200,327,67,209,150,379
156,62,180,285,69,216,157,406
160,64,195,326,67,224,156,415
176,80,194,378,63,232,139,416
153,82,213,521,64,238,148,422
163,95,217,529,62,207,151,472
161,94,218,616,66,229,145,478
166,99,204,609,68,225,139,506
147,108,222,647,68,227,142,488
159,108,210,628,67,232,135,505
140,99,204,639,72,238,149,458
144,102,215,585,66,206,150,450
172,102,210,568,65,214,162,423
173,83,184,490,62,230,164,402
159,82,180,365,60,233,174,428
174,86,173,349,66,214,180,440
182,87,163,309,67,223,176,415
159,77,179,326,69,208,166,396
157,79,220,372,74,196,172,471
164,78,226,379,74,177,163,415
155,84,241,377,66,176,141,411
146,86,251,438,63,180,155,460
145,90,247,438,61,221,169,482
162,82,221,433,62,230,167,471
165,83,207,471,63,222,173,479
174,86,173,349,66,214,180,440
182,87,163,309,67,223,176,415
159,77,179,326,69,208,166,396
157,79,220,372,74,196,172,471
164,78,226,379,74,177,163,415
155,84,241,377,66,176,141,411
146,86,251,438,63,180,155,460
145,90,247,438,61,221,169,482
162,82,221,433,62,230,167,471
165,83,207,471,63,222,173,479
165,65,182,480,67,215,159,450
163,63,181,432,66,239,146,407
164,77,186,410,68,209,131,410
137,83,208,429,61,189,134,360
132,84,235,432,63,189,122,362
126,90,266,426,62,223,120,357
132,90,294,493,65,196,138,454
142,76,300,530,65,213,163,482
178,73,274,508,66,227,149,482
191,72,259,516,73,236,152,499
194,64,235,521,70,199,158,503
196,58,220,497,67,211,173,409
193,71,201,461,64,203,146,329
160,70,208,450,69,187,149,321
160,73,206,392,60,178,148,304
167,73,227,370,59,186,142,265
173,72,188,307,62,153,90,224
186,82,189,459,79,117,94,219
218,91,189,635,147,115,367,168
264,109,227,844,301,115,458,134
194,64,235,521,70,199,158,503
196,58,220,497,67,211,173,409
193,71,201,461,64,203,146,329
160,70,208,450,69,187,149,321
160,73,206,392,60,178,148,304
167,73,227,370,59,186,142,265
173,72,188,307,62,153,90,224
186,82,189,459,79,117,94,219
218,91,189,635,147,115,367,168
264,109,227,844,301,115,458,134
435,146,252,1043,595,118,516,149
466,161,265,1137,756,132,570,148
462,154,275,1135,819,140,593,159
455,151,286,1133,875,164,548,152
440,145,281,1044,897,162,517,132
282,110,235,861,760,176,475,114
255,103,235,754,635,185,436,105
256,99,214,736,586,199,444,130
257,94,193,690,528,186,416,146
249,77,141,681,457,182,397,148
261,82,140,722,428,170,383,148
272,72,116,757,446,156,463,146
304,87,128,704,456,151,437,142
341,92,129,748,460,140,391,192
383,98,143,796,478,140,358,202
428,105,136,760,487,127,360,210
423,101,134,795,444,113,206,225
402,85,123,796,408,83,185,214
373,83,125,737,365,83,143,169
318,82,127,711,325,79,131,151
219,90,151,446,191,187,106,63
207,85,119,368,198,207,140,78
217,79,220,428,200,222,138,92
216,66,228,455,207,251,152,213
223,90,270,480,191,306,179,231
241,102,288,468,162,345,226,317
229,106,329,473,156,372,209,359
200,121,288,449,149,438,225,454
200,138,300,497,138,579,258,493
192,130,291,520,137,617,330,534
195,145,355,643,147,812,426,558
203,146,411,829,143,820,454,624
237,145,459,861,152,860,494,593
303,161,463,881,173,872,518,648
357,193,493,920,181,900,598,710
355,183,461,868,170,794,550,698
368,196,443,776,172,817,551,718
361,215,498,869,180,771,540,750
323,222,529,823,155,770,561,673
286,196,513,863,148,770,476,622
301,198,548,1014,154,788,459,699
289,183,514,983,149,781,460,675
272,155,438,913,141,794,496,663
255,129,399,924,140,781,461,667
223,146,510,937,137,732,464,701
231,140,485,783,129,725,460,600
262,142,527,937,136,745,473,668
282,167,552,926,125,764,418,700
281,170,556,934,123,700,395,732
279,158,483,847,119,701,354,699
301,198,548,1014,154,788,459,699
289,183,514,983,149,781,460,675
272,155,438,913,141,794,496,663
255,129,399,924,140,781,461,667
223,146,510,937,137,732,464,701
231,140,485,783,129,725,460,600
262,142,527,937,136,745,473,668
282,167,552,926,125,764,418,700
281,170,556,934,123,700,395,732
279,158,483,847,119,701,354,699
244,162,488,840,118,642,382,700
202,172,475,820,101,572,359,625
167,151,424,796,110,566,413,611
180,142,419,757,105,528,452,682
198,137,363,776,135,514,474,743
203,127,341,782,138,501,498,783
230,127,298,575,145,554,501,761
227,133,377,685,150,522,469,760
211,141,369,808,168,594,432,725
240,141,385,952,151,658,421,744
279,147,383,932,148,635,368,787
267,144,435,982,142,630,342,828
294,144,357,963,140,607,305,881
296,142,390,930,123,530,297,848
276,145,390,769,135,445,321,814
279,158,465,787,138,418,346,795
303,171,434,779,146,414,402,777
300,184,503,729,140,423,400,676
310,172,475,699,136,456,404,743
301,166,501,725,153,443,356,696
279,147,383,932,148,635,368,787
267,144,435,982,142,630,342,828
294,144,357,963,140,607,305,881
296,142,390,930,123,530,297,848
276,145,390,769,135,445,321,814
279,158,465,787,138,418,346,795
303,171,434,779,146,414,402,777
300,184,503,729,140,423,400,676
310,172,475,699,136,456,404,743
301,166,501,725,153,443,356,696
259,150,424,717,148,534,329,628
234,126,424,706,148,508,258,631
215,91,373,704,152,546,311,697
197,92,363,676,156,559,334,633
219,119,322,622,129,555,357,680
228,132,412,615,124,502,354,790
206,130,383,577,125,564,402,779
222,143,377,620,116,512,405,808
217,139,406,645,111,485,384,801
220,131,411,630,114,485,369,755
239,132,339,653,125,465,371,705
258,167,412,676,124,425,331,703
274,167,428,639,125,447,312,745
282,183,457,648,131,451,309,760
257,182,449,675,123,454,287,741
235,173,439,732,118,465,282,678
237,142,366,696,109,450,263,722
198,133,333,794,119,445,240,599
190,124,321,845,108,422,232,619
193,125,326,874,105,438,229,641
239,132,339,653,125,465,371,705
258,167,412,676,124,425,331,703
274,167,428,639,125,447,312,745
282,183,457,648,131,451,309,760
257,182,449,675,123,454,287,741
235,173,439,732,118,465,282,678
237,142,366,696,109,450,263,722
198,133,333,794,119,445,240,599
190,124,321,845,108,422,232,619
193,125,326,874,105,438,229,641
183,129,390,863,112,407,247,650
173,140,434,890,115,371,323,678
193,142,453,837,109,399,342,773
191,136,435,760,119,398,361,733
220,134,437,712,123,406,407,809
221,131,379,664,113,426,393,821
208,117,326,666,112,456,331,752
169,115,306,662,104,401,301,609
168,113,293,730,93,404,296,660
152,134,298,735,82,423,242,572
158,129,292,724,93,433,244,567
169,134,297,810,87,423,276,571
176,132,307,780,90,469,278,574
192,126,285,715,88,478,251,522
182,101,270,726,96,439,242,589
173,105,278,712,90,417,236,552
174,101,273,598,103,382,180,510
188,112,256,536,106,327,179,682
172,115,259,502,109,316,230,711
149,110,275,447,109,301,234,653
158,129,292,724,93,433,244,567
169,134,297,810,87,423,276,571
176,132,307,780,90,469,278,574
192,126,285,715,88,478,251,522
182,101,270,726,96,439,242,589
173,105,278,712,90,417,236,552
174,101,273,598,103,382,180,510
188,112,256,536,106,327,179,682
172,115,259,502,109,316,230,711
149,110,275,447,109,301,234,653
175,109,280,486,108,314,232,689
171,105,306,460,102,307,258,764
196,104,304,461,97,319,289,720
197,111,313,459,100,324,254,670
207,116,314,560,93,311,268,644
201,112,318,523,90,323,284,683
224,123,305,546,94,345,302,675
181,111,297,560,92,336,279,578
187,102,287,548,89,327,286,572
196,88,250,438,91,356,282,640
181,86,227,425,94,344,269,568
171,86,226,524,104,323,224,458
170,85,224,541,106,304,200,459
159,88,218,624,108,298,186,449
145,96,219,620,109,250,152,350
149,99,214,633,100,245,158,321
143,88,200,519,75,253,206,397
149,89,187,501,79,265,255,400
155,86,196,424,88,265,274,470
149,78,217,450,83,268,302,460
181,86,227,425,94,344,269,568
171,86,226,524,104,323,224,458
170,85,224,541,106,304,200,459
159,88,218,624,108,298,186,449
145,96,219,620,109,250,152,350
149,99,214,633,100,245,158,321
143,88,200,519,75,253,206,397
149,89,187,501,79,265,255,400
155,86,196,424,88,265,274,470
149,78,217,450,83,268,302,460
150,80,226,407,86,289,309,522
138,88,234,431,90,288,276,495
173,101,235,428,83,274,228,509
180,103,302,550,74,260,217,456
187,102,293,581,78,262,180,461
188,97,302,579,76,208,160,504
191,87,300,630,80,235,163,518
174,87,316,677,81,299,200,542
174,88,244,586,80,324,222,572
185,99,284,655,86,330,220,570
188,102,273,660,94,326,227,476
196,101,273,622,89,309,275,474
183,92,272,614,93,261,269,440
174,87,272,596,89,268,256,418
159,77,227,470,93,256,255,436
149,81,249,582,93,255,242,451
128,77,239,557,93,252,183,526
183,86,225,534,99,231,168,557
193,87,237,638,101,191,169,566
193,92,230,632,89,200,158,549
188,102,273,660,94,326,227,476
196,101,273,622,89,309,275,474
183,92,272,614,93,261,269,440
174,87,272,596,89,268,256,418
159,77,227,470,93,256,255,436
149,81,249,582,93,255,242,451
128,77,239,557,93,252,183,526
183,86,225,534,99,231,168,557
193,87,237,638,101,191,169,566
193,92,230,632,89,200,158,549
200,86,194,524,86,219,189,537
227,95,211,545,81,201,214,504
230,97,217,575,67,200,201,449
220,95,212,521,67,190,183,420
218,88,221,520,68,195,191,423
231,88,217,515,73,185,173,436
202,83,234,507,76,199,142,371
158,89,300,470,78,209,141,352
159,89,319,391,72,222,134,341
162,91,347,418,91,225,132,421
144,89,349,459,82,248,139,480
147,91,327,508,83,268,145,468
147,73,259,505,82,271,169,555
148,75,265,651,85,269,205,628
157,75,230,629,69,261,228,598
153,88,250,642,73,223,215,551
161,94,281,604,74,185,237,622
151,104,311,707,75,203,226,566
157,106,281,582,71,218,197,483
162,111,276,660,79,221,164,529
144,89,349,459,82,248,139,480
147,91,327,508,83,268,145,468
147,73,259,505,82,271,169,555
148,75,265,651,85,269,205,628
157,75,230,629,69,261,228,598
153,88,250,642,73,223,215,551
161,94,281,604,74,185,237,622
151,104,311,707,75,203,226,566
157,106,281,582,71,218,197,483
162,111,276,660,79,221,164,529
164,114,294,643,79,252,201,545
188,114,285,653,78,272,165,487
206,119,256,528,77,251,159,464
234,120,249,571,77,238,181,517
225,118,253,484,62,228,192,477
247,110,218,527,66,224,186,482
227,106,239,511,65,227,190,445
217,89,269,537,66,239,192,476
202,85,277,489,73,243,170,440
208,88,265,516,74,259,183,467
186,88,277,502,70,247,148,460
191,85,238,492,70,249,177,505
189,93,222,495,71,240,175,527
168,92,223,503,68,239,180,499
158,92,228,517,73,233,167,472
172,104,244,492,70,225,186,555
189,99,261,514,69,199,182,532
191,93,267,510,69,204,187,483
186,97,281,523,70,209,187,505
190,93,285,482,76,211,185,511
186,88,277,502,70,247,148,460
191,85,238,492,70,249,177,505
189,93,222,495,71,240,175,527
168,92,223,503,68,239,180,499
158,92,228,517,73,233,167,472
172,104,244,492,70,225,186,555
189,99,261,514,69,199,182,532
191,93,267,510,69,204,187,483
186,97,281,523,70,209,187,505
190,93,285,482,76,211,185,511
179,77,268,449,79,236,161,388
174,87,251,423,82,271,133,403
172,103,301,466,88,326,136,428
178,104,290,437,90,323,157,403
167,101,292,432,84,315,148,375
150,99,280,432,90,315,157,436
124,98,282,465,88,303,172,438
131,92,223,389,82,251,165,445
147,96,236,495,90,251,172,509
144,98,233,557,95,252,191,513
153,99,249,580,87,234,187,459
162,94,256,619,94,205,174,413
157,89,244,642,101,193,179,416
158,81,226,578,91,183,174,401
169,86,234,531,83,237,166,442
187,89,204,490,88,249,178,489
186,94,214,416,78,242,176,499
187,90,202,390,76,258,185,471
197,92,193,404,76,279,170,435
198,89,195,395,76,273,184,366
153,99,249,580,87,234,187,459
162,94,256,619,94,205,174,413
157,89,244,642,101,193,179,416
158,81,226,578,91,183,174,401
169,86,234,531,83,237,166,442
187,89,204,490,88,249,178,489
186,94,214,416,78,242,176,499
187,90,202,390,76,258,185,471
197,92,193,404,76,279,170,435
198,89,195,395,76,273,184,366
182,83,210,499,75,262,192,324
181,83,213,562,80,267,206,369
178,80,214,543,76,249,195,400
148,76,216,560,74,234,202,405
151,73,196,570,77,203,186,421
153,85,208,536,75,248,170,451
167,84,203,477,72,283,169,439
181,96,215,523,71,313,176,432
187,98,235,502,77,326,178,455
189,100,231,480,76,329,201,475
175,97,215,465,81,333,203,448
162,104,207,460,82,348,203,479
153,95,186,432,85,316,201,487
154,100,191,443,84,314,191,464
136,101,228,476,80,326,192,481
157,107,224,481,86,297,191,473
141,100,260,473,84,303,182,403
140,96,277,496,78,338,186,443
134,89,262,500,77,320,179,442
161,88,261,485,77,318,155,399
175,97,215,465,81,333,203,448
162,104,207,460,82,348,203,479
153,95,186,432,85,316,201,487
154,100,191,443,84,314,191,464
136,101,228,476,80,326,192,481
157,107,224,481,86,297,191,473
141,100,260,473,84,303,182,403
140,96,277,496,78,338,186,443
134,89,262,500,77,320,179,442
161,88,261,485,77,318,155,399
144,73,265,477,66,311,171,404
146,72,243,513,67,269,173,412
189,95,250,453,70,251,163,364
186,93,244,449,71,252,171,339
187,91,240,456,76,258,167,389
189,106,251,433,81,278,167,400
194,106,226,399,80,265,163,407
143,89,218,446,79,255,158,377
140,90,231,446,79,264,177,389
130,94,214,496,80,237,181,365
176,87,200,527,71,206,170,431
186,81,206,534,73,271,177,437
204,78,188,507,70,267,185,435
211,77,185,487,69,261,170,470
197,74,188,419,67,270,168,435
160,61,183,346,68,268,166,341
159,83,195,329,80,209,155,333
158,93,207,409,83,244,168,334
149,95,199,383,88,253,189,315
155,102,199,378,85,228,187,394
176,87,200,527,71,206,170,431
186,81,206,534,73,271,177,437
204,78,188,507,70,267,185,435
211,77,185,487,69,261,170,470
197,74,188,419,67,270,168,435
160,61,183,346,68,268,166,341
159,83,195,329,80,209,155,333
158,93,207,409,83,244,168,334
149,95,199,383,88,253,189,315
155,102,199,378,85,228,187,394
147,107,212,417,84,252,198,398
127,94,205,396,72,262,202,432
107,86,207,311,68,227,192,457
123,105,260,369,64,216,178,434
130,113,286,487,66,223,166,364
136,117,284,494,73,216,140,390
170,127,336,497,79,191,159,458
169,126,336,566,84,190,168,466
168,111,300,530,82,189,154,485
159,103,286,438,88,186,159,492
184,96,279,415,82,153,160,466
251,103,209,479,148,149,235,338
400,127,232,737,289,155,315,267
499,150,224,805,532,139,349,188
578,157,209,881,660,154,486,157
627,166,232,944,686,163,526,150
638,162,241,952,717,168,571,160
578,154,205,756,762,161,588,168
521,143,230,778,687,166,606,169
453,143,235,849,600,151,527,192
184,96,279,415,82,153,160,466
251,103,209,479,148,149,235,338
400,127,232,737,289,155,315,267
499,150,224,805,532,139,349,188
578,157,209,881,660,154,486,157
627,166,232,944,686,163,526,150
638,162,241,952,717,168,571,160
578,154,205,756,762,161,588,168
521,143,230,778,687,166,606,169
453,143,235,849,600,151,527,192
405,146,225,894,615,146,563,181
357,149,222,895,696,137,523,173
372,150,240,961,671,117,480,171
362,141,223,948,637,111,474,192
344,126,204,814,643,128,448,157
326,108,194,842,670,117,358,142
310,95,192,851,572,127,303,140
248,72,156,776,498,131,261,123
251,72,140,750,464,128,230,98
268,71,137,806,409,101,242,144
254,69,118,661,301,103,235,150
250,60,84,595,262,87,227,153
274,63,81,595,255,77,218,157
240,65,117,591,251,74,145,148
212,73,129,519,266,74,111,101
201,71,129,515,265,87,89,92
214,70,133,532,241,89,58,86
175,68,134,481,230,87,46,76
173,61,109,460,216,82,43,67
215,60,90,453,220,94,36,64
167,64,171,366,164,199,138,84
149,69,176,393,175,192,140,94
143,78,187,402,163,176,128,110
145,88,159,346,130,183,157,153
176,91,132,307,133,173,176,235
212,100,157,366,141,184,180,321
230,114,169,306,111,200,189,329
260,118,158,318,105,213,205,424
276,115,164,324,106,250,191,469
279,125,188,341,149,246,181,485
245,145,212,386,165,268,249,458
233,140,230,489,172,323,283,537
245,144,259,541,178,375,318,556
254,165,326,580,177,363,343,587
258,159,346,669,152,363,346,642
311,164,361,708,133,358,327,786
368,199,512,777,149,447,373,872
370,215,547,904,163,444,412,891
391,231,566,922,173,505,468,903
410,258,598,940,179,533,538,912
407,260,600,936,183,580,548,840
365,260,552,989,167,583,509,729
355,246,563,936,145,589,469,752
327,220,541,975,132,548,396,693
308,194,500,936,110,593,335,712
259,173,495,967,110,558,311,649
257,128,399,838,114,528,334,642
232,130,336,758,128,508,339,540
214,133,280,702,123,491,338,581
183,120,282,803,137,401,289,465
407,260,600,936,183,580,548,840
365,260,552,989,167,583,509,729
355,246,563,936,145,589,469,752
327,220,541,975,132,548,396,693
308,194,500,936,110,593,335,712
259,173,495,967,110,558,311,649
257,128,399,838,114,528,334,642
232,130,336,758,128,508,339,540
214,133,280,702,123,491,338,581
183,120,282,803,137,401,289,465
166,129,263,814,130,415,280,470
165,127,285,851,134,313,250,517
149,130,343,905,120,280,218,548
157,129,364,894,123,347,221,539
233,135,387,805,103,369,261,649
266,132,379,708,106,325,261,714
280,140,394,709,101,335,253,723
295,132,348,674,110,352,277,742
297,120,334,709,110,334,280,724
244,117,292,658,120,329,248,657
214,112,299,634,113,327,242,685
183,105,291,628,104,325,242,660
181,110,280,637,90,317,210,641
171,125,314,612,84,332,248,660
165,122,328,755,82,348,253,699
179,121,311,779,77,356,243,658
194,132,329,753,86,346,248,648
192,126,341,713,87,367,267,618
249,130,337,718,96,334,220,648
250,128,334,601,94,299,197,607
214,112,299,634,113,327,242,685
183,105,291,628,104,325,242,660
181,110,280,637,90,317,210,641
171,125,314,612,84,332,248,660
165,122,328,755,82,348,253,699
179,121,311,779,77,356,243,658
194,132,329,753,86,346,248,648
192,126,341,713,87,367,267,618
249,130,337,718,96,334,220,648
250,128,334,601,94,299,197,607
233,137,355,579,94,334,214,567
220,122,317,523,86,342,197,556
228,128,304,512,99,316,174,585
182,112,304,504,94,325,199,519
176,109,285,481,86,308,208,477
185,97,310,616,92,265,194,463
192,99,320,646,100,273,191,447
174,95,316,618,90,255,174,408
162,93,293,620,93,201,156,454
156,95,292,623,91,220,146,454
152,90,239,487,86,208,138,451
145,105,238,488,79,179,129,442
148,95,235,506,76,176,145,442
187,107,243,499,65,177,155,401
205,121,248,478,71,195,173,413
231,124,246,510,78,196,173,406
254,110,233,473,81,213,174,424
267,116,262,485,80,233,171,473
250,108,242,504,86,231,182,474
236,97,229,514,81,266,169,455
152,90,239,487,86,208,138,451
145,105,238,488,79,179,129,442
148,95,235,506,76,176,145,442
187,107,243,499,65,177,155,401
205,121,248,478,71,195,173,413
231,124,246,510,78,196,173,406
254,110,233,473,81,213,174,424
267,116,262,485,80,233,171,473
250,108,242,504,86,231,182,474
236,97,229,514,81,266,169,455
220,110,252,538,79,286,165,498
189,111,251,555,77,280,164,502
180,112,208,588,80,313,168,549
176,115,246,581,75,322,144,577
182,129,283,566,76,279,134,576
162,114,277,541,73,263,140,531
181,121,278,530,68,256,146,498
163,114,270,483,59,194,138,383
158,109,246,436,62,192,137,307
172,90,203,469,60,213,145,338
171,95,200,558,59,227,162,362
164,84,195,541,60,232,164,413
173,87,205,568,61,235,175,422
172,88,211,598,59,244,177,444
172,92,216,587,69,234,170,521
182,86,188,457,72,221,152,518
175,96,179,472,72,210,148,484
169,93,179,428,72,200,149,513
164,88,175,428,71,206,152,519
181,99,240,493,59,189,153,430
171,95,200,558,59,227,162,362
164,84,195,541,60,232,164,413
173,87,205,568,61,235,175,422
172,88,211,598,59,244,177,444
172,92,216,587,69,234,170,521
182,86,188,457,72,221,152,518
175,96,179,472,72,210,148,484
169,93,179,428,72,200,149,513
164,88,175,428,71,206,152,519
181,99,240,493,59,189,153,430
178,103,260,507,51,187,157,463
178,92,286,550,53,206,160,458
180,95,292,584,52,233,138,416
176,93,286,536,53,228,119,398
149,73,238,478,63,251,119,373
163,70,224,512,73,252,117,373
156,71,185,451,70,254,122,428
159,71,184,452,80,249,126,411
165,72,171,459,84,237,136,468
163,74,189,502,77,229,140,488
152,89,189,478,74,222,141,443
153,90,194,482,73,203,137,422
137,100,202,443,63,186,151,434
124,99,220,479,58,172,150,382
145,105,212,468,67,146,146,373
152,105,214,438,84,151,138,389
169,115,243,549,93,183,136,375
169,99,222,536,95,181,126,431
175,104,240,501,98,206,116,428
149,101,223,482,92,226,122,419
152,89,189,478,74,222,141,443
153,90,194,482,73,203,137,422
137,100,202,443,63,186,151,434
124,99,220,479,58,172,150,382
145,105,212,468,67,146,146,373
152,105,214,438,84,151,138,389
169,115,243,549,93,183,136,375
169,99,222,536,95,181,126,431
175,104,240,501,98,206,116,428
149,101,223,482,92,226,122,419
179,91,221,475,78,242,128,385
178,78,194,338,68,228,124,385
181,84,211,362,66,238,146,383
190,84,175,353,66,236,147,412
192,93,198,345,70,230,147,431
148,86,196,372,69,221,155,432
139,86,195,391,80,237,183,435
165,86,183,377,81,236,168,406
146,81,175,360,73,251,179,363
158,74,173,355,68,250,174,330
166,77,179,354,63,247,185,363
158,77,171,316,51,226,156,342
124,80,193,329,59,221,145,276
125,77,203,366,65,215,141,301
116,70,179,357,66,204,142,316
126,71,182,354,64,195,147,379
131,72,202,446,69,187,153,384
130,63,175,444,65,188,160,399
162,69,179,416,61,167,152,391
159,75,191,438,65,203,149,400
166,77,179,354,63,247,185,363
158,77,171,316,51,226,156,342
124,80,193,329,59,221,145,276
125,77,203,366,65,215,141,301
116,70,179,357,66,204,142,316
126,71,182,354,64,195,147,379
131,72,202,446,69,187,153,384
130,63,175,444,65,188,160,399
162,69,179,416,61,167,152,391
159,75,191,438,65,203,149,400
157,74,183,454,69,209,125,315
183,88,191,407,71,205,120,306
197,94,212,444,85,191,121,336
175,97,217,464,84,180,134,337
174,92,241,453,85,249,136,317
174,98,287,471,86,243,148,379
157,88,278,447,79,264,161,384
153,87,277,427,63,288,159,402
170,87,268,439,69,304,150,407
165,91,245,445,76,224,146,397
151,82,199,423,73,221,131,353
199,87,219,541,78,216,115,389
201,87,219,535,75,199,118,404
192,85,247,534,76,171,122,440
225,96,268,544,74,183,146,480
246,107,267,541,76,182,155,508
202,104,242,468,76,162,149,501
194,105,229,499,77,162,146,448
190,103,213,498,77,190,142,400
148,83,177,468,71,219,115,345
151,82,199,423,73,221,131,353
199,87,219,541,78,216,115,389
201,87,219,535,75,199,118,404
192,85,247,534,76,171,122,440
225,96,268,544,74,183,146,480
246,107,267,541,76,182,155,508
202,104,242,468,76,162,149,501
194,105,229,499,77,162,146,448
190,103,213,498,77,190,142,400
148,83,177,468,71,219,115,345
120,72,187,488,73,270,137,359
128,75,192,500,70,271,153,372
126,70,196,506,65,265,147,372
122,68,187,513,63,251,161,433
169,77,189,496,59,243,176,475
181,78,174,504,54,189,160,433
180,71,179,456,57,216,163,449
184,81,189,403,69,220,168,461
184,80,182,413,72,227,157,417
164,84,186,413,74,210,142,433
155,94,233,404,76,216,148,469
154,99,240,401,74,209,134,438
154,97,225,400,81,212,139,450
150,97,254,343,79,219,147,481
123,90,252,360,86,212,150,450
109,81,210,336,85,225,140,463
110,79,224,374,86,215,145,445
102,75,235,428,78,222,139,430
123,85,225,464,80,206,142,395
174,97,265,479,73,218,143,427
155,94,233,404,76,216,148,469
154,99,240,401,74,209,134,438
154,97,225,400,81,212,139,450
150,97,254,343,79,219,147,481
123,90,252,360,86,212,150,450
109,81,210,336,85,225,140,463
110,79,224,374,86,215,145,445
102,75,235,428,78,222,139,430
123,85,225,464,80,206,142,395
174,97,265,479,73,218,143,427
196,105,261,502,75,219,136,378
191,101,264,464,73,216,153,380
199,102,287,475,68,222,159,412
186,104,293,484,62,235,160,401
140,98,271,511,70,226,167,375
113,85,288,549,71,213,166,365
125,97,285,554,67,214,146,404
136,98,263,524,69,190,149,415
182,113,247,507,74,191,145,413
188,107,239,484,66,189,137,445
188,110,246,395,62,180,133,438
180,105,236,449,69,208,146,400
168,105,275,514,70,230,129,376
116,89,278,549,73,211,112,376
119,88,306,569,71,211,102,324
117,85,298,568,76,213,120,328
140,83,293,537,72,177,120,380
148,81,306,627,74,168,124,363
150,71,303,671,71,180,136,361
149,83,289,682,74,208,149,363
188,110,246,395,62,180,133,438
180,105,236,449,69,208,146,400
168,105,275,514,70,230,129,376
116,89,278,549,73,211,112,376
119,88,306,569,71,211,102,324
117,85,298,568,76,213,120,328
140,83,293,537,72,177,120,380
148,81,306,627,74,168,124,363
150,71,303,671,71,180,136,361
149,83,289,682,74,208,149,363
162,88,272,724,67,215,154,386
149,85,287,707,73,220,184,449
138,86,223,600,70,217,196,451
142,85,207,534,69,217,189,449
129,78,207,524,79,205,178,443
114,81,216,500,85,214,166,485
115,88,216,567,81,211,126,382
125,97,235,551,79,204,106,385
120,98,245,583,74,221,112,413
127,105,245,560,69,223,125,414
130,104,237,544,63,215,134,437
145,109,220,508,66,211,142,477
131,103,221,517,69,218,141,468
126,101,207,442,73,196,140,446
136,94,195,477,70,227,199,570
133,97,198,479,69,220,203,547
146,85,183,464,74,237,206,525
149,82,176,511,81,235,207,542
150,93,240,557,80,236,212,578
146,102,238,541,85,188,149,445
130,104,237,544,63,215,134,437
145,109,220,508,66,211,142,477
131,103,221,517,69,218,141,468
126,101,207,442,73,196,140,446
136,94,195,477,70,227,199,570
133,97,198,479,69,220,203,547
146,85,183,464,74,237,206,525
149,82,176,511,81,235,207,542
150,93,240,557,80,236,212,578
146,102,238,541,85,188,149,445
141,98,249,544,84,195,142,419
102,100,263,534,79,192,132,411
120,102,261,475,65,192,137,494
125,94,205,422,62,195,129,486
118,79,214,419,52,197,132,508
123,86,213,405,55,216,127,478
121,79,200,411,55,224,132,482
107,70,191,402,64,233,151,374
107,74,211,400,66,221,154,323
116,88,218,447,74,228,155,309
121,76,198,483,70,196,149,341
116,76,209,511,68,177,153,322
108,73,224,492,63,159,121,301
102,67,214,498,67,175,130,289
94,53,204,445,57,164,125,253
88,52,241,484,61,170,131,269
115,69,225,440,61,165,127,358
127,79,242,437,71,154,141,422
204,103,321,508,77,146,159,582
213,108,338,539,78,184,183,600
121,76,198,483,70,196,149,341
116,76,209,511,68,177,153,322
108,73,224,492,63,159,121,301
102,67,214,498,67,175,130,289
94,53,204,445,57,164,125,253
88,52,241,484,61,170,131,269
115,69,225,440,61,165,127,358
127,79,242,437,71,154,141,422
204,103,321,508,77,146,159,582
213,108,338,539,78,184,183,600
210,107,334,508,80,178,184,602
197,100,335,535,85,210,186,560
192,104,323,544,82,221,177,533
110,84,236,508,80,213,150,364
144,76,199,492,92,179,126,361
165,94,171,450,120,174,152,306
182,112,214,602,392,124,205,285
297,104,218,658,525,121,450,258
319,113,243,741,614,131,535,256
457,126,266,822,722,138,614,213
505,134,289,922,828,156,633,215
506,128,276,982,752,157,647,195
462,143,290,1011,805,167,532,176
454,141,274,1010,769,155,459,130
301,132,250,947,682,139,372,114
216,113,222,891,576,124,366,96
219,103,194,762,582,118,329,98
194,75,147,737,394,80,323,97
182,62,138,637,365,76,302,92
241,69,136,674,359,106,331,99
505,134,289,922,828,156,633,215
506,128,276,982,752,157,647,195
462,143,290,1011,805,167,532,176
454,141,274,1010,769,155,459,130
301,132,250,947,682,139,372,114
216,113,222,891,576,124,366,96
219,103,194,762,582,118,329,98
194,75,147,737,394,80,323,97
182,62,138,637,365,76,302,92
241,69,136,674,359,106,331,99
248,64,122,691,358,105,300,106
232,63,128,649,327,102,279,106
301,82,115,558,316,107,239,119
321,89,115,624,286,107,239,127
301,82,109,645,272,90,143,118
304,86,127,687,205,91,137,110
339,90,117,701,247,97,124,108
290,76,119,704,232,93,121,79
287,65,119,728,246,94,121,73
262,67,133,816,286,92,114,70
260,63,135,772,283,82,58,71
236,61,140,755,273,75,58,64
221,65,144,785,275,76,54,67
211,68,138,743,297,80,47,66
216,68,119,575,273,92,50,76
196,68,105,560,282,90,66,99
171,63,103,572,278,93,70,94
202,56,102,547,291,90,74,126
191,54,101,508,256,97,75,129
198,55,99,548,235,105,72,124
158,112,314,684,115,458,328,478
154,131,334,554,127,409,254,490
195,138,332,585,145,399,245,527
187,131,316,541,140,380,245,593
199,117,288,544,133,308,248,678
212,125,267,557,128,327,234,626
211,104,243,612,116,308,224,602
211,98,250,600,106,303,206,560
217,100,235,607,115,296,196,496
206,106,229,571,124,314,210,456
204,108,273,674,125,340,241,498
202,112,295,633,122,412,321,499
160,112,300,593,109,424,350,548
144,122,365,692,110,455,354,538
156,120,377,678,98,450,358,454
184,140,382,606,89,413,334,442
190,136,349,597,85,357,251,475
193,139,345,656,92,321,211,450
228,132,315,592,83,261,177,482
227,135,353,610,90,290,182,477
207,116,323,617,93,298,178,437
223,116,336,639,97,310,177,441
225,116,333,551,87,304,168,464
243,113,289,494,82,335,212,489
253,113,256,548,75,301,189,560
249,119,330,555,78,293,206,566
227,121,320,531,78,262,205,514
230,132,330,559,79,265,209,476
180,126,330,591,89,246,162,456
155,130,331,584,87,242,169,386
207,116,323,617,93,298,178,437
223,116,336,639,97,310,177,441
225,116,333,551,87,304,168,464
243,113,289,494,82,335,212,489
253,113,256,548,75,301,189,560
249,119,330,555,78,293,206,566
227,121,320,531,78,262,205,514
230,132,330,559,79,265,209,476
180,126,330,591,89,246,162,456
155,130,331,584,87,242,169,386
159,123,375,620,83,229,176,497
163,119,382,629,85,224,191,541
162,106,373,596,84,211,192,549
153,117,427,609,77,182,196,555
167,109,414,577,82,227,186,618
163,97,312,608,83,233,165,546
166,97,307,641,83,299,156,528
165,91,305,665,83,303,166,515
166,73,238,628,81,326,178,490
156,70,225,647,74,314,205,404
145,70,202,574,80,371,214,381
133,71,201,569,80,334,206,381
152,84,211,600,95,366,205,396
188,86,209,610,97,343,191,377
183,95,235,625,100,348,164,353
187,100,236,555,92,303,152,328
186,98,231,546,84,286,155,312
162,91,235,546,66,251,163,324
164,91,223,582,59,253,179,341
211,94,225,543,56,218,177,358
145,70,202,574,80,371,214,381
133,71,201,569,80,334,206,381
152,84,211,600,95,366,205,396
188,86,209,610,97,343,191,377
183,95,235,625,100,348,164,353
187,100,236,555,92,303,152,328
186,98,231,546,84,286,155,312
162,91,235,546,66,251,163,324
164,91,223,582,59,253,179,341
211,94,225,543,56,218,177,358
213,92,263,577,59,199,177,361
215,94,262,543,63,205,175,349
225,94,264,496,66,204,158,409
190,100,276,480,74,202,160,404
140,101,273,442,74,232,171,413
152,108,262,437,80,206,185,454
148,111,256,480,82,224,179,472
150,111,246,483,89,235,201,436
161,110,240,497,83,255,222,471
156,100,225,547,85,229,207,463
149,100,196,568,82,243,191,427
147,98,219,540,76,226,186,413
132,113,268,556,68,211,184,381
116,104,253,495,67,203,145,328
121,100,244,449,65,235,164,333
101,94,282,611,61,229,158,327
98,89,267,629,73,216,168,314
105,64,232,706,80,206,156,358
110,67,238,773,84,194,156,364
108,83,268,816,93,186,156,373
149,100,196,568,82,243,191,427
147,98,219,540,76,226,186,413
132,113,268,556,68,211,184,381
116,104,253,495,67,203,145,328
121,100,244,449,65,235,164,333
101,94,282,611,61,229,158,327
98,89,267,629,73,216,168,314
105,64,232,706,80,206,156,358
110,67,238,773,84,194,156,364
108,83,268,816,93,186,156,373
107,98,285,690,96,198,155,379
116,105,307,667,91,240,148,398
142,107,289,568,89,234,151,469
144,109,300,478,88,230,150,476
150,101,294,391,74,232,156,467
160,89,257,485,81,220,172,476
165,95,290,618,79,174,170,504
140,92,290,639,82,196,159,419
132,106,309,684,79,213,156,404
117,109,336,822,99,203,146,404
115,111,330,768,95,206,134,405
101,106,317,700,98,219,145,341
94,110,338,672,103,204,133,313
100,93,303,635,107,181,134,357
103,82,262,512,96,196,149,353
95,76,259,493,96,208,156,352
98,79,235,460,90,215,148,356
103,77,237,499,78,219,173,391
112,82,238,490,77,224,173,385
131,94,251,416,75,242,151,371
115,111,330,768,95,206,134,405
101,106,317,700,98,219,145,341
94,110,338,672,103,204,133,313
100,93,303,635,107,181,134,357
103,82,262,512,96,196,149,353
95,76,259,493,96,208,156,352
98,79,235,460,90,215,148,356
103,77,237,499,78,219,173,391
112,82,238,490,77,224,173,385
131,94,251,416,75,242,151,371
123,94,240,405,68,265,152,400
124,89,234,445,68,268,169,429
127,89,221,421,66,264,142,393
128,85,251,493,63,274,143,402
102,76,232,494,76,268,134,404
117,77,286,574,77,244,125,369
138,82,281,538,82,230,103,355
140,77,270,544,86,234,116,368
132,75,245,513,90,270,138,359
145,93,263,562,74,251,182,410
143,96,211,481,74,241,188,452
125,87,200,483,71,241,187,448
126,98,199,460,66,251,180,466
135,108,200,410,66,200,176,510
127,100,196,356,72,196,146,492
134,100,222,479,72,227,134,440
127,101,227,488,76,222,136,433
123,101,238,521,74,211,138,404
118,92,251,542,65,218,116,339
123,92,229,517,65,236,124,354
143,96,211,481,74,241,188,452
125,87,200,483,71,241,187,448
126,98,199,460,66,251,180,466
135,108,200,410,66,200,176,510
127,100,196,356,72,196,146,492
134,100,222,479,72,227,134,440
127,101,227,488,76,222,136,433
123,101,238,521,74,211,138,404
118,92,251,542,65,218,116,339
123,92,229,517,65,236,124,354
116,89,220,420,66,204,123,382
133,89,232,454,72,214,134,364
131,78,242,473,82,221,136,370
131,83,234,481,89,254,162,360
122,74,243,527,84,232,157,308
112,79,254,536,95,242,165,294
99,77,253,476,98,242,158,387
100,79,238,427,92,262,165,428
102,86,264,417,85,231,165,483
114,97,289,402,86,230,155,494
117,88,266,393,78,224,150,498
116,89,266,423,65,245,165,454
114,91,268,413,66,218,170,408
110,81,240,414,71,214,149,355
106,76,215,413,82,219,160,413
103,82,256,427,79,230,161,396
99,86,267,476,81,225,168,395
122,90,259,479,78,222,158,395
130,93,254,459,79,250,174,379
132,89,247,464,69,253,162,304
117,88,266,393,78,224,150,498
116,89,266,423,65,245,165,454
114,91,268,413,66,218,170,408
110,81,240,414,71,214,149,355
106,76,215,413,82,219,160,413
103,82,256,427,79,230,161,396
99,86,267,476,81,225,168,395
122,90,259,479,78,222,158,395
130,93,254,459,79,250,174,379
132,89,247,464,69,253,162,304
130,87,217,444,74,299,163,327
131,84,182,399,66,279,141,321
106,78,203,465,76,278,135,306
94,93,235,493,76,263,118,283
87,92,229,469,77,251,127,373
95,92,211,469,75,201,130,365
96,94,208,455,88,207,142,342
111,92,186,410,79,223,157,361
125,81,180,403,76,245,156,422
131,81,226,450,80,272,159,343
126,78,230,437,75,251,149,349
147,78,230,467,74,278,139,386
145,80,233,495,77,281,137,431
130,80,211,492,80,251,152,371
138,80,157,451,83,225,145,414
141,84,184,504,87,231,158,407
115,79,190,477,88,221,166,395
118,77,196,468,91,206,166,372
121,70,197,435,88,205,150,366
113,76,216,453,86,244,166,313
126,78,230,437,75,251,149,349
147,78,230,467,74,278,139,386
145,80,233,495,77,281,137,431
130,80,211,492,80,251,152,371
138,80,157,451,83,225,145,414
141,84,184,504,87,231,158,407
115,79,190,477,88,221,166,395
118,77,196,468,91,206,166,372
121,70,197,435,88,205,150,366
113,76,216,453,86,244,166,313
127,72,195,398,81,267,174,322
133,73,188,403,78,259,172,356
124,69,177,360,73,257,157,324
123,68,174,376,72,269,157,353
122,69,169,372,66,238,166,403
115,69,156,438,77,235,155,395
134,78,171,469,71,223,153,483
142,90,221,484,79,257,167,506
140,90,228,467,81,249,175,493
129,79,217,491,82,247,166,513
159,82,221,439,70,221,190,579
151,74,260,421,76,220,182,494
140,73,251,435,78,169,185,471
143,74,257,495,75,165,177,513
156,77,254,467,75,154,192,514
130,75,270,462,76,179,167,429
115,77,242,475,75,175,173,429
126,71,213,451,70,187,159,440
130,71,213,402,74,180,158,412
118,70,231,460,75,214,127,348
159,82,221,439,70,221,190,579
151,74,260,421,76,220,182,494
140,73,251,435,78,169,185,471
143,74,257,495,75,165,177,513
156,77,254,467,75,154,192,514
130,75,270,462,76,179,167,429
115,77,242,475,75,175,173,429
126,71,213,451,70,187,159,440
130,71,213,402,74,180,158,412
118,70,231,460,75,214,127,348
105,72,214,482,76,220,135,365
109,75,202,471,70,229,144,356
105,73,189,480,71,220,143,367
108,69,168,506,72,219,164,384
111,73,145,440,74,185,170,410
125,73,167,413,79,219,187,437
126,71,162,460,92,221,173,424
121,73,186,513,96,224,178,397
117,72,199,542,95,231,180,397
125,80,203,558,96,246,189,382
128,84,182,558,91,218,176,344
135,88,232,535,78,214,178,351
151,92,236,491,70,240,185,371
166,102,252,446,72,257,178,368
160,95,272,505,72,252,155,332
144,92,280,568,77,236,140,319
136,93,263,596,76,229,154,391
123,102,261,651,78,220,145,379
98,95,241,678,82,193,125,337
100,95,266,652,82,210,137,411
128,84,182,558,91,218,176,344
135,88,232,535,78,214,178,351
151,92,236,491,70,240,185,371
166,102,252,446,72,257,178,368
160,95,272,505,72,252,155,332
144,92,280,568,77,236,140,319
136,93,263,596,76,229,154,391
123,102,261,651,78,220,145,379
98,95,241,678,82,193,125,337
100,95,266,652,82,210,137,411
113,103,255,611,76,225,179,465
109,98,247,561,72,225,169,400
108,89,248,460,67,223,169,399
115,89,238,432,62,227,172,458
124,97,188,383,64,212,180,410
127,88,196,434,67,210,152,368
130,87,184,455,70,214,151,369
136,81,173,510,73,246,160,393
131,77,180,498,71,241,162,371
115,68,187,518,74,244,147,370
107,64,190,464,71,231,157,404
113,60,186,438,75,239,163,420
99,54,170,393,74,209,151,406
96,63,206,438,71,222,151,379
94,58,202,417,61,213,152,393
85,62,198,398,63,215,127,387
69,62,193,405,61,204,122,363
71,65,202,410,63,191,133,392
68,54,161,381,65,197,132,378
71,60,205,478,72,210,142,364
107,64,190,464,71,231,157,404
113,60,186,438,75,239,163,420
99,54,170,393,74,209,151,406
96,63,206,438,71,222,151,379
94,58,202,417,61,213,152,393
85,62,198,398,63,215,127,387
69,62,193,405,61,204,122,363
71,65,202,410,63,191,133,392
68,54,161,381,65,197,132,378
71,60,205,478,72,210,142,364
71,67,208,483,75,215,153,365
86,68,219,471,81,229,169,388
94,78,223,495,78,229,156,366
101,82,234,487,78,235,156,416
112,78,205,389,76,230,154,449
123,82,236,452,72,220,150,419
120,84,243,482,63,194,124,395
113,77,240,450,65,207,138,384
113,78,241,438,63,174,138,320
104,79,224,440,58,158,124,238
95,62,186,383,56,149,105,196
88,58,167,325,54,145,102,177
98,54,154,315,47,113,81,120
90,55,154,292,45,110,72,104
89,52,143,258,44,101,109,85
116,73,135,258,70,86,231,77
125,80,128,325,226,83,301,70
127,82,130,370,313,63,368,104
148,79,97,460,389,71,419,112
154,80,111,596,441,82,453,126
95,62,186,383,56,149,105,196
88,58,167,325,54,145,102,177
98,54,154,315,47,113,81,120
90,55,154,292,45,110,72,104
89,52,143,258,44,101,109,85
116,73,135,258,70,86,231,77
125,80,128,325,226,83,301,70
127,82,130,370,313,63,368,104
148,79,97,460,389,71,419,112
154,80,111,596,441,82,453,126
163,68,116,656,465,92,448,138
196,73,110,721,450,90,429,142
220,89,127,707,525,107,532,124
227,104,147,798,512,97,515,122
258,107,141,727,483,102,485,107
257,107,145,828,564,98,470,101
302,108,140,818,574,120,536,109
331,98,129,845,469,116,499,147
354,92,132,842,454,120,540,155
412,100,141,907,472,131,564,176
413,97,138,823,349,131,650,174
393,88,139,798,341,119,669,185
371,84,153,854,383,120,624,159
398,84,158,779,381,121,632,182
335,79,152,692,359,108,661,174
343,81,149,694,376,109,570,179
350,90,171,719,361,109,478,162
367,95,160,662,326,102,439,185
326,93,138,694,316,99,357,172
358,85,133,721,330,107,246,166
413,97,138,823,349,131,650,174
393,88,139,798,341,119,669,185
371,84,153,854,383,120,624,159
398,84,158,779,381,121,632,182
335,79,152,692,359,108,661,174
343,81,149,694,376,109,570,179
350,90,171,719,361,109,478,162
367,95,160,662,326,102,439,185
326,93,138,694,316,99,357,172
358,85,133,721,330,107,246,166
342,84,140,691,320,110,264,157
309,76,116,650,307,104,248,162
285,82,116,665,299,100,363,142
272,85,123,647,276,100,373,123
203,85,122,625,250,102,373,152
228,93,106,634,224,95,345,155
221,92,97,633,191,92,338,146
252,87,93,684,175,90,186,151
235,74,71,624,221,88,136,158
233,76,79,620,208,86,231,186
232,67,87,606,214,83,241,183
280,68,87,559,214,84,240,185
238,62,87,501,213,84,235,176
257,63,94,484,166,88,235,167
254,57,85,475,167,64,161,112
233,58,78,462,184,62,137,127
213,64,80,503,196,78,129,149
218,64,78,444,202,83,126,143
206,60,73,434,215,86,138,148
209,64,76,481,215,89,143,141
243,146,468,746,118,508,204,456
257,148,490,756,125,556,223,494
259,134,440,799,138,604,260,475
258,135,402,763,143,602,257,561
251,130,410,765,143,556,224,643
246,148,340,627,132,496,242,649
248,164,333,609,109,454,295,618
211,161,310,628,96,377,277,605
218,160,305,739,99,392,308,617
237,174,296,743,99,410,318,530
246,185,482,935,129,456,384,603
282,181,482,984,139,472,341,605
285,182,508,984,141,529,353,594
294,184,502,883,137,479,350,539
288,170,501,864,135,454,364,534
276,142,296,644,112,384,275,452
214,125,243,560,107,377,275,451
229,117,183,448,107,290,257,481
238,118,180,457,101,360,246,470
238,117,168,555,107,390,272,457
253,119,254,635,104,411,292,507
254,122,292,677,109,383,284,526
240,118,286,647,107,413,277,503
219,118,286,659,122,382,282,542
202,115,288,585,122,361,239,567
176,113,219,465,127,360,227,501
178,109,183,349,118,425,228,486
188,111,193,467,118,410,218,491
169,106,196,456,103,418,236,479
165,109,184,433,97,403,219,461
253,119,254,635,104,411,292,507
254,122,292,677,109,383,284,526
240,118,286,647,107,413,277,503
219,118,286,659,122,382,282,542
202,115,288,585,122,361,239,567
176,113,219,465,127,360,227,501
178,109,183,349,118,425,228,486
188,111,193,467,118,410,218,491
169,106,196,456,103,418,236,479
165,109,184,433,97,403,219,461
164,101,200,552,95,369,206,465
169,92,220,634,101,328,231,424
183,116,260,546,95,323,242,521
191,108,256,550,94,305,193,440
196,111,292,577,91,315,196,420
233,119,295,481,81,332,200,484
238,139,275,423,71,335,221,504
220,127,241,514,70,327,211,418
223,135,271,642,89,336,227,486
226,128,233,652,105,359,257,486
191,126,231,667,103,375,258,427
180,108,224,663,103,334,239,420
201,106,220,626,110,330,252,441
187,104,216,599,97,307,241,406
203,104,233,600,82,271,209,449
200,98,250,592,83,234,231,493
224,113,257,571,89,233,214,500
204,104,253,609,98,280,213,492
209,105,228,523,99,288,215,470
195,114,231,567,103,301,241,505
191,126,231,667,103,375,258,427
180,108,224,663,103,334,239,420
201,106,220,626,110,330,252,441
187,104,216,599,97,307,241,406
203,104,233,600,82,271,209,449
200,98,250,592,83,234,231,493
224,113,257,571,89,233,214,500
204,104,253,609,98,280,213,492
209,105,228,523,99,288,215,470
195,114,231,567,103,301,241,505
197,118,230,592,104,303,230,450
186,102,214,654,95,324,217,525
191,113,248,628,78,307,212,532
202,115,259,656,80,336,199,547
193,111,258,611,74,330,173,515
196,107,240,591,81,328,173,558
164,119,320,716,100,312,204,472
159,108,289,708,107,299,206,485
137,100,286,654,105,272,215,476
153,106,291,678,112,271,202,484
187,110,292,690,112,261,198,454
203,101,231,510,108,242,187,499
203,108,235,495,101,251,184,505
207,107,267,560,106,267,181,484
212,104,259,521,95,260,186,447
177,93,251,496,87,278,170,449
173,88,235,495,77,286,148,433
162,87,263,531,80,271,128,358
174,87,232,469,82,291,145,416
165,85,230,519,90,283,153,405
187,110,292,690,112,261,198,454
203,101,231,510,108,242,187,499
203,108,235,495,101,251,184,505
207,107,267,560,106,267,181,484
212,104,259,521,95,260,186,447
177,93,251,496,87,278,170,449
173,88,235,495,77,286,148,433
162,87,263,531,80,271,128,358
174,87,232,469,82,291,145,416
165,85,230,519,90,283,153,405
162,87,228,569,88,278,157,374
155,91,219,542,82,290,167,351
173,88,197,544,87,286,160,393
166,83,197,601,73,230,163,361
151,74,192,570,78,232,187,394
156,78,206,549,91,241,198,413
169,79,213,552,90,215,189,403
149,74,227,586,82,211,192,434
152,80,238,563,83,207,168,446
157,82,230,575,71,197,131,420
156,87,231,572,53,172,109,413
150,82,237,597,53,206,103,412
184,95,252,532,49,204,97,398
174,103,279,531,54,205,117,383
174,106,290,524,58,209,117,366
172,98,292,524,57,215,121,361
180,105,295,549,61,221,123,391
168,102,287,626,78,246,129,344
173,98,265,620,74,251,141,386
185,105,261,587,77,253,158,462
156,87,231,572,53,172,109,413
150,82,237,597,53,206,103,412
184,95,252,532,49,204,97,398
174,103,279,531,54,205,117,383
174,106,290,524,58,209,117,366
172,98,292,524,57,215,121,361
180,105,295,549,61,221,123,391
168,102,287,626,78,246,129,344
173,98,265,620,74,251,141,386
185,105,261,587,77,253,158,462
188,115,244,566,85,272,164,451
181,112,230,546,85,254,191,413
165,110,198,472,70,228,196,451
161,105,159,451,79,237,191,424
144,91,141,459,78,238,185,404
132,79,165,440,74,225,187,430
111,84,193,408,73,210,167,443
118,88,230,382,80,237,160,394
127,93,237,361,73,216,152,385
182,110,263,403,73,216,145,359
191,112,247,423,75,200,135,332
190,106,226,446,76,201,140,366
183,102,193,422,70,182,136,376
193,107,187,432,70,187,129,364
151,92,161,382,71,174,135,364
146,97,273,452,66,191,139,361
150,101,307,444,65,199,140,368
146,96,308,467,72,176,150,359
127,87,320,502,79,190,150,349
123,88,337,511,79,200,142,328
191,112,247,423,75,200,135,332
190,106,226,446,76,201,140,366
183,102,193,422,70,182,136,376
193,107,187,432,70,187,129,364
151,92,161,382,71,174,135,364
146,97,273,452,66,191,139,361
150,101,307,444,65,199,140,368
146,96,308,467,72,176,150,359
127,87,320,502,79,190,150,349
123,88,337,511,79,200,142,328
141,88,298,443,79,222,145,375
151,90,268,454,83,233,145,325
166,94,326,475,76,253,136,344
167,94,318,430,74,262,128,394
160,93,292,439,67,260,130,389
151,83,244,430,71,234,123,389
146,73,236,394,72,241,104,411
136,64,161,401,75,234,107,435
150,71,163,411,74,217,118,399
161,67,169,394,74,207,122,422
155,79,190,436,83,261,133,433
160,80,191,450,85,262,130,423
158,83,196,432,92,253,138,399
145,74,190,420,90,244,135,425
141,74,197,431,91,270,131,408
144,75,189,384,78,232,130,367
125,76,207,410,73,218,140,345
137,83,204,500,65,214,138,373
147,86,198,531,62,221,137,337
150,90,199,522,61,226,155,350
155,79,190,436,83,261,133,433
160,80,191,450,85,262,130,423
158,83,196,432,92,253,138,399
145,74,190,420,90,244,135,425
141,74,197,431,91,270,131,408
144,75,189,384,78,232,130,367
125,76,207,410,73,218,140,345
137,83,204,500,65,214,138,373
147,86,198,531,62,221,137,337
150,90,199,522,61,226,155,350
196,87,197,562,61,216,154,350
197,87,189,528,64,205,146,392
189,80,167,427,56,221,143,360
176,88,178,409,60,219,145,398
189,98,192,457,74,206,134,359
179,103,203,403,78,214,145,445
179,115,212,405,76,220,163,447
177,113,214,426,76,240,165,444
180,108,205,421,76,245,159,461
155,98,214,396,68,230,163,503
107,89,203,413,62,208,144,419
113,87,201,412,60,224,137,414
119,86,205,370,73,207,160,500
111,85,202,382,71,204,162,461
133,86,177,389,76,221,152,424
143,93,188,406,79,238,162,462
162,78,173,434,78,229,158,477
169,80,162,467,63,239,137,367
206,81,170,445,62,293,151,388
197,78,163,443,55,283,154,405
107,89,203,413,62,208,144,419
113,87,201,412,60,224,137,414
119,86,205,370,73,207,160,500
111,85,202,382,71,204,162,461
133,86,177,389,76,221,152,424
143,93,188,406,79,238,162,462
162,78,173,434,78,229,158,477
169,80,162,467,63,239,137,367
206,81,170,445,62,293,151,388
197,78,163,443,55,283,154,405
207,76,145,411,52,294,156,364
203,83,163,398,54,290,168,315
200,88,174,358,56,261,165,343
180,88,201,413,53,202,163,349
174,90,207,475,61,204,176,361
148,84,243,507,68,195,169,353
139,80,238,493,68,193,149,407
133,73,239,520,80,201,143,415
105,67,221,498,86,230,150,422
130,65,212,416,79,278,138,406
159,75,167,395,79,274,149,458
165,82,163,425,81,283,156,469
183,82,145,416,74,308,161,456
189,89,148,389,74,279,154,433
202,90,183,430,74,222,155,457
193,87,200,485,71,220,145,438
186,84,211,491,70,242,142,410
234,109,233,531,68,237,139,452
232,108,230,556,66,255,153,511
211,103,227,534,70,279,151,526
159,75,167,395,79,274,149,458
165,82,163,425,81,283,156,469
183,82,145,416,74,308,161,456
189,89,148,389,74,279,154,433
202,90,183,430,74,222,155,457
193,87,200,485,71,220,145,438
186,84,211,491,70,242,142,410
234,109,233,531,68,237,139,452
232,108,230,556,66,255,153,511
211,103,227,534,70,279,151,526
201,101,216,471,67,274,161,524
226,105,209,486,77,271,172,499
165,81,215,424,74,253,171,476
170,79,212,382,76,249,176,436
177,84,202,444,81,239,172,408
180,79,204,471,83,247,156,370
147,71,203,415,81,220,145,414
148,83,197,432,83,232,162,406
140,85,204,465,85,220,137,363
134,79,189,374,79,205,134,365
123,81,200,374,83,181,138,369
149,92,234,503,75,188,146,330
151,85,224,586,74,176,122,346
156,86,248,612,66,179,125,356
152,98,264,624,66,178,129,314
164,107,261,618,66,184,125,344
144,97,222,549,65,171,108,324
145,91,215,457,66,188,120,321
158,88,184,408,70,188,117,350
163,80,160,442,68,185,111,374
123,81,200,374,83,181,138,369
149,92,234,503,75,188,146,330
151,85,224,586,74,176,122,346
156,86,248,612,66,179,125,356
152,98,264,624,66,178,129,314
164,107,261,618,66,184,125,344
144,97,222,549,65,171,108,324
145,91,215,457,66,188,120,321
158,88,184,408,70,188,117,350
163,80,160,442,68,185,111,374
162,76,188,446,64,180,134,376
152,74,190,446,69,183,154,394
146,83,202,481,75,172,149,412
130,84,200,492,74,173,153,403
140,84,208,443,76,186,156,386
140,78,166,437,76,195,149,412
140,78,166,405,73,199,138,430
127,72,164,399,72,212,144,414
128,76,175,411,72,204,136,393
129,74,181,486,69,212,150,484
122,76,196,524,68,230,143,453
130,82,199,530,68,224,138,424
137,84,216,537,75,202,160,444
145,81,211,532,76,223,174,452
151,83,198,476,77,229,164,359
148,84,230,488,76,216,183,425
144,77,229,509,75,238,208,445
163,78,233,571,61,253,193,445
153,77,233,566,56,259,187,476
141,75,237,628,64,254,195,484
122,76,196,524,68,230,143,453
130,82,199,530,68,224,138,424
137,84,216,537,75,202,160,444
145,81,211,532,76,223,174,452
151,83,198,476,77,229,164,359
148,84,230,488,76,216,183,425
144,77,229,509,75,238,208,445
163,78,233,571,61,253,193,445
153,77,233,566,56,259,187,476
141,75,237,628,64,254,195,484
150,77,230,594,64,242,179,449
157,83,241,602,71,226,158,499
131,81,227,502,69,221,163,496
126,82,232,494,76,209,154,463
121,82,235,426,74,206,145,457
113,78,217,381,70,225,136,431
102,76,219,369,63,223,145,357
130,74,198,358,67,199,128,296
160,73,184,354,61,211,140,291
163,75,221,394,54,196,170,275
158,76,226,467,59,179,177,246
162,73,216,473,58,164,156,199
164,84,226,479,63,161,150,178
156,81,222,463,66,117,170,139
186,81,174,455,77,121,310,113
211,74,152,480,179,110,403,133
253,92,148,568,442,131,487,171
256,87,136,672,560,149,652,219
330,94,153,773,581,157,716,234
357,96,151,814,596,147,702,238
158,76,226,467,59,179,177,246
162,73,216,473,58,164,156,199
164,84,226,479,63,161,150,178
156,81,222,463,66,117,170,139
186,81,174,455,77,121,310,113
211,74,152,480,179,110,403,133
253,92,148,568,442,131,487,171
256,87,136,672,560,149,652,219
330,94,153,773,581,157,716,234
357,96,151,814,596,147,702,238
355,99,146,783,590,148,692,220
324,84,134,699,468,137,679,192
329,79,128,669,405,119,529,143
250,73,131,829,430,101,459,112
192,67,128,804,424,119,482,96
189,60,124,795,443,117,454,130
229,57,123,844,415,108,425,135
237,59,127,850,358,106,442,134
271,54,103,599,303,108,459,148
294,65,103,617,307,76,400,166
292,72,107,640,300,85,410,144
283,75,101,664,322,86,404,167
270,78,101,632,299,93,398,164
235,83,116,663,303,87,368,152
231,74,115,622,310,98,342,141
235,70,109,647,299,98,292,141
221,66,109,582,283,98,250,108
228,61,99,553,311,96,220,101
252,64,85,539,298,96,163,104
218,60,81,543,271,84,160,87
292,72,107,640,300,85,410,144
283,75,101,664,322,86,404,167
270,78,101,632,299,93,398,164
235,83,116,663,303,87,368,152
231,74,115,622,310,98,342,141
235,70,109,647,299,98,292,141
221,66,109,582,283,98,250,108
228,61,99,553,311,96,220,101
252,64,85,539,298,96,163,104
218,60,81,543,271,84,160,87
231,66,87,561,242,91,161,87
222,69,87,542,261,92,167,92
204,67,85,548,234,85,160,92
190,56,84,530,247,83,157,88
226,60,110,612,254,81,122,85
207,59,107,556,239,78,88,104
256,60,106,580,222,76,54,123
253,60,105,605,230,85,112,146
238,60,101,605,226,83,116,150
256,58,73,511,208,83,116,154
257,58,94,565,213,60,121,144
225,61,108,607,211,75,141,121
246,65,111,587,197,67,107,111
242,64,113,596,225,74,105,111
202,68,117,590,229,78,157,127
206,67,100,563,219,77,166,126
192,63,96,482,192,95,147,128
170,63,96,467,174,94,144,141
182,72,98,474,131,95,144,136
182,73,102,535,131,93,87,119
228,149,330,525,194,327,249,491
236,160,359,556,183,415,290,584
255,182,438,565,197,612,286,687
254,185,474,576,200,666,298,698
253,185,497,554,198,706,306,757
276,186,464,615,204,835,338,829
271,177,458,650,180,824,342,856
234,153,436,715,166,693,349,853
310,156,440,809,179,648,359,902
358,176,467,855,171,620,375,910
379,179,474,857,162,447,380,880
368,177,463,850,146,488,374,827
384,176,418,807,163,505,394,802
317,171,374,747,144,519,366,811
257,159,305,738,153,558,352,765
201,148,315,760,155,610,326,673
216,143,363,779,182,543,323,676
192,130,369,762,174,526,287,617
189,124,385,788,182,475,287,488
248,111,383,758,165,405,279,550
267,107,364,669,172,381,291,542
247,108,406,615,144,378,288,494
257,108,390,579,130,381,283,500
276,103,374,536,120,405,299,566
246,122,378,530,121,418,304,537
232,129,387,531,104,329,280,549
244,125,308,585,110,384,275,585
236,121,311,613,105,406,274,600
215,126,333,566,98,425,263,576
203,126,328,671,100,435,267,534
267,107,364,669,172,381,291,542
247,108,406,615,144,378,288,494
257,108,390,579,130,381,283,500
276,103,374,536,120,405,299,566
246,122,378,530,121,418,304,537
232,129,387,531,104,329,280,549
244,125,308,585,110,384,275,585
236,121,311,613,105,406,274,600
215,126,333,566,98,425,263,576
203,126,328,671,100,435,267,534
196,116,281,796,108,472,281,566
191,113,249,760,102,428,279,598
209,113,245,757,110,416,276,569
230,110,232,789,110,388,313,704
236,111,237,690,110,353,285,697
235,109,239,632,102,330,285,679
236,117,231,629,101,339,275,627
239,123,224,633,96,318,297,723
210,121,209,617,96,323,264,588
194,107,240,663,98,406,302,675
202,106,232,573,93,392,287,676
233,105,267,641,95,395,280,697
218,99,285,663,96,419,270,663
234,105,296,672,94,426,267,649
234,112,311,661,85,393,244,631
219,115,341,692,82,404,254,629
177,118,354,602,79,391,259,599
193,122,338,565,67,365,237,566
179,119,371,603,66,355,236,601
183,117,347,594,77,314,241,573
202,106,232,573,93,392,287,676
233,105,267,641,95,395,280,697
218,99,285,663,96,419,270,663
234,105,296,672,94,426,267,649
234,112,311,661,85,393,244,631
219,115,341,692,82,404,254,629
177,118,354,602,79,391,259,599
193,122,338,565,67,365,237,566
179,119,371,603,66,355,236,601
183,117,347,594,77,314,241,573
195,133,340,550,82,340,232,536
206,128,326,575,102,347,241,524
210,125,330,646,101,360,268,516
224,129,307,625,114,343,249,476
228,119,324,678,109,339,228,568
240,100,347,765,113,323,225,612
234,100,321,758,104,340,236,624
226,102,315,758,112,335,207,610
232,106,283,709,103,322,226,626
242,123,271,630,108,334,232,485
219,119,224,529,96,299,227,447
214,119,244,534,102,282,208,431
189,117,238,453,102,264,236,426
169,121,270,502,104,287,243,415
168,114,245,483,100,263,237,499
171,117,257,548,106,281,252,584
171,115,241,548,94,265,255,616
176,118,246,586,83,251,227,621
185,100,209,566,88,229,196,695
159,89,213,570,87,222,216,644
219,119,224,529,96,299,227,447
214,119,244,534,102,282,208,431
189,117,238,453,102,264,236,426
169,121,270,502,104,287,243,415
168,114,245,483,100,263,237,499
171,117,257,548,106,281,252,584
171,115,241,548,94,265,255,616
176,118,246,586,83,251,227,621
185,100,209,566,88,229,196,695
159,89,213,570,87,222,216,644
160,85,177,509,92,223,191,571
163,76,186,513,91,233,192,608
163,83,257,542,103,230,202,590
139,81,284,537,95,240,213,489
148,88,285,532,96,242,194,495
143,94,295,544,86,222,202,527
161,100,301,558,86,192,188,552
183,92,235,511,87,238,192,598
183,93,202,510,85,247,198,644
191,88,201,574,78,272,217,698
185,84,192,590,84,272,214,662
170,82,168,578,87,273,212,599
144,82,183,544,84,250,201,550
187,89,236,560,87,241,196,482
189,95,238,489,92,223,162,378
192,97,246,446,86,219,163,381
186,95,255,404,89,243,174,391
193,96,257,424,90,224,165,378
158,106,246,380,84,205,155,384
141,101,237,397,80,195,183,442
185,84,192,590,84,272,214,662
170,82,168,578,87,273,212,599
144,82,183,544,84,250,201,550
187,89,236,560,87,241,196,482
189,95,238,489,92,223,162,378
192,97,246,446,86,219,163,381
186,95,255,404,89,243,174,391
193,96,257,424,90,224,165,378
158,106,246,380,84,205,155,384
141,101,237,397,80,195,183,442
160,102,229,406,86,206,182,501
163,104,220,403,80,194,173,498
168,97,210,383,74,198,177,512
165,79,171,399,77,235,190,524
180,89,198,409,76,272,170,521
174,81,212,402,69,271,162,490
181,79,204,385,64,293,158,458
182,87,250,499,72,292,157,477
179,91,249,554,94,287,139,464
167,84,252,575,94,254,135,475
171,98,285,612,93,254,155,459
199,96,291,624,99,236,166,499
199,89,253,526,87,237,160,508
203,90,258,500,65,218,181,532
217,87,251,454,73,228,198,473
216,79,219,499,77,217,189,484
190,84,242,632,76,207,183,473
186,88,244,650,76,220,188,467
229,97,247,630,78,223,177,468
215,108,252,635,75,222,159,498
171,98,285,612,93,254,155,459
199,96,291,624,99,236,166,499
199,89,253,526,87,237,160,508
203,90,258,500,65,218,181,532
217,87,251,454,73,228,198,473
216,79,219,499,77,217,189,484
190,84,242,632,76,207,183,473
186,88,244,650,76,220,188,467
229,97,247,630,78,223,177,468
215,108,252,635,75,222,159,498
206,109,242,565,74,274,167,495
206,108,220,408,73,286,163,491
204,107,218,395,78,275,166,469
168,99,220,384,76,266,151,422
157,88,208,388,78,261,147,369
152,80,212,431,76,206,137,356
148,84,225,503,72,201,135,391
170,89,218,507,67,206,133,411
149,91,205,492,64,213,134,451
144,89,188,494,51,199,137,468
157,95,174,450,51,272,134,468
167,93,139,355,72,269,129,416
151,86,147,333,76,261,128,457
158,76,191,332,75,258,136,473
160,79,188,349,80,269,125,500
163,83,189,353,82,204,131,509
151,81,204,404,70,207,129,528
132,84,236,423,72,207,123,497
125,86,224,441,74,213,128,487
127,85,238,429,74,207,137,453
157,95,174,450,51,272,134,468
167,93,139,355,72,269,129,416
151,86,147,333,76,261,128,457
158,76,191,332,75,258,136,473
160,79,188,349,80,269,125,500
163,83,189,353,82,204,131,509
151,81,204,404,70,207,129,528
132,84,236,423,72,207,123,497
125,86,224,441,74,213,128,487
127,85,238,429,74,207,137,453
105,75,264,471,72,230,144,474
143,88,256,425,77,224,158,440
158,90,226,421,74,230,160,428
155,86,230,401,76,224,152,431
170,86,233,408,72,227,150,456
171,91,214,366,70,208,141,406
149,76,233,416,59,199,136,448
147,82,227,417,58,187,137,438
159,88,208,427,55,212,144,426
174,101,203,408,56,212,151,488
186,109,195,444,64,198,161,511
189,108,187,412,60,194,166,500
184,113,199,387,65,253,160,490
184,113,202,374,63,230,195,524
173,104,212,390,67,245,212,458
168,111,211,333,72,248,218,467
168,114,250,356,74,263,224,447
216,106,275,512,82,236,239,498
210,104,274,511,86,229,204,456
196,110,269,488,92,205,186,446
186,109,195,444,64,198,161,511
189,108,187,412,60,194,166,500
184,113,199,387,65,253,160,490
184,113,202,374,63,230,195,524
173,104,212,390,67,245,212,458
168,111,211,333,72,248,218,467
168,114,250,356,74,263,224,447
216,106,275,512,82,236,239,498
210,104,274,511,86,229,204,456
196,110,269,488,92,205,186,446
199,100,261,495,83,217,186,463
200,100,213,516,89,197,194,482
163,99,178,420,78,171,201,434
159,102,180,463,78,195,234,524
162,89,197,546,82,219,255,532
187,84,236,570,85,208,245,512
172,92,251,578,78,213,241,507
164,94,257,565,78,262,251,571
164,92,251,564,76,257,229,464
178,98,230,480,61,274,209,440
160,104,225,466,75,285,211,417
195,102,220,405,78,294,192,389
183,104,218,408,80,259,162,352
184,102,213,403,81,269,152,358
163,101,210,424,80,274,138,371
181,105,189,440,66,264,131,450
164,103,179,453,65,249,148,472
168,101,174,443,59,239,137,473
179,102,170,443,55,230,143,591
191,105,166,445,64,189,148,579
160,104,225,466,75,285,211,417
195,102,220,405,78,294,192,389
183,104,218,408,80,259,162,352
184,102,213,403,81,269,152,358
163,101,210,424,80,274,138,371
181,105,189,440,66,264,131,450
164,103,179,453,65,249,148,472
168,101,174,443,59,239,137,473
179,102,170,443,55,230,143,591
191,105,166,445,64,189,148,579
176,104,148,397,64,191,140,524
192,100,142,366,62,209,125,516
198,100,148,345,59,238,122,538
204,100,153,327,62,273,107,419
197,97,187,360,52,268,102,437
176,85,195,371,48,268,101,428
142,80,194,424,58,258,96,472
134,72,176,499,65,248,126,523
112,76,182,490,71,219,162,524
119,72,136,484,81,239,174,520
180,76,167,552,80,245,200,605
196,73,162,517,79,249,209,599
205,77,174,445,77,250,203,506
214,84,200,521,76,260,198,491
222,87,213,590,76,252,195,550
184,86,198,539,81,292,185,476
178,89,211,607,79,285,196,449
173,90,210,599,77,265,202,429
189,83,191,546,73,243,190,497
191,89,204,482,67,268,246,568
180,76,167,552,80,245,200,605
196,73,162,517,79,249,209,599
205,77,174,445,77,250,203,506
214,84,200,521,76,260,198,491
222,87,213,590,76,252,195,550
184,86,198,539,81,292,185,476
178,89,211,607,79,285,196,449
173,90,210,599,77,265,202,429
189,83,191,546,73,243,190,497
191,89,204,482,67,268,246,568
192,87,196,473,66,216,244,572
185,85,197,420,65,248,228,564
195,83,204,434,67,268,232,594
186,86,211,422,71,262,230,572
165,77,200,409,70,235,167,462
158,78,226,408,77,244,173,465
152,80,225,367,74,210,172,453
145,81,225,343,82,235,155,426
141,78,219,381,78,273,179,505
145,78,234,376,76,271,174,480
151,79,233,414,74,274,206,536
153,87,227,432,76,301,212,537
142,91,227,476,79,286,231,593
139,90,211,438,79,253,207,545
136,86,205,472,83,261,207,564
151,92,171,425,80,264,217,566
183,88,163,452,84,244,216,604
209,88,197,502,75,236,206,626
202,100,216,540,72,247,210,588
212,103,200,502,70,245,219,594
151,79,233,414,74,274,206,536
153,87,227,432,76,301,212,537
142,91,227,476,79,286,231,593
139,90,211,438,79,253,207,545
136,86,205,472,83,261,207,564
151,92,171,425,80,264,217,566
183,88,163,452,84,244,216,604
209,88,197,502,75,236,206,626
202,100,216,540,72,247,210,588
212,103,200,502,70,245,219,594
204,103,222,528,65,245,164,530
183,102,228,540,64,253,155,478
150,97,193,489,67,255,162,342
168,84,186,455,70,236,157,313
156,83,201,447,66,223,138,228
172,90,202,459,73,199,133,180
165,82,194,408,76,194,127,184
166,91,197,377,72,185,124,300
151,99,205,362,69,203,136,407
174,103,192,341,70,241,176,533
163,99,198,377,75,252,192,603
182,107,207,396,71,233,213,663
192,104,247,459,78,255,199,644
214,97,233,472,83,246,204,627
194,97,268,517,90,211,171,531
180,87,259,450,89,195,155,450
206,93,256,478,113,192,168,339
244,103,218,630,339,152,267,291
305,122,239,725,400,139,385,175
363,127,196,748,430,122,455,161
163,99,198,377,75,252,192,603
182,107,207,396,71,233,213,663
192,104,247,459,78,255,199,644
214,97,233,472,83,246,204,627
194,97,268,517,90,211,171,531
180,87,259,450,89,195,155,450
206,93,256,478,113,192,168,339
244,103,218,630,339,152,267,291
305,122,239,725,400,139,385,175
363,127,196,748,430,122,455,161
394,145,181,933,570,127,533,191
471,147,181,975,622,142,641,200
488,162,179,933,571,146,640,195
453,158,172,982,699,150,643,191
419,155,185,970,754,162,665,196
418,143,179,836,685,152,640,162
333,140,181,851,685,144,553,171
305,125,197,896,676,136,572,194
287,113,184,775,538,137,536,218
278,115,197,848,487,125,500,206
246,113,203,888,470,130,469,200
229,104,198,845,421,122,477,196
246,107,177,727,461,119,415,171
247,110,182,803,458,108,368,136
272,100,147,707,405,101,303,160
270,91,131,673,387,93,290,182
267,89,125,635,358,93,216,175
230,69,116,606,262,82,260,206
256,64,85,474,185,79,253,199
251,73,83,481,219,77,247,180
246,113,203,888,470,130,469,200
229,104,198,845,421,122,477,196
246,107,177,727,461,119,415,171
247,110,182,803,458,108,368,136
272,100,147,707,405,101,303,160
270,91,131,673,387,93,290,182
267,89,125,635,358,93,216,175
230,69,116,606,262,82,260,206
256,64,85,474,185,79,253,199
251,73,83,481,219,77,247,180
245,76,92,431,212,79,284,163
235,80,105,569,267,89,308,161
225,77,110,593,263,85,272,122
254,84,114,624,272,91,268,142
260,82,122,619,254,96,277,146
266,81,120,629,272,92,246,149
258,76,104,497,224,84,213,156
258,73,97,519,224,86,191,155
216,66,97,512,234,87,180,159
192,65,84,477,217,88,150,155
177,67,87,525,211,88,121,155
193,71,91,527,215,89,129,155
234,74,90,486,216,90,129,162
229,69,85,499,211,86,127,142
241,73,96,565,224,80,127,139
266,80,98,562,219,84,120,128
268,78,99,600,231,77,85,125
255,80,105,652,229,83,131,127
240,83,112,650,223,86,173,127
229,77,101,610,233,88,177,131
205,175,377,638,178,727,261,599
261,206,360,628,162,775,360,769
310,207,451,650,153,725,425,827
313,193,477,750,136,741,412,803
320,185,497,763,131,761,421,815
310,168,490,754,135,720,437,766
288,136,500,815,129,714,398,736
264,132,459,914,122,710,359,717
276,150,485,937,125,607,404,794
274,150,459,891,126,569,394,802
283,149,410,903,120,522,381,802
267,138,401,831,123,456,372,739
251,130,363,694,120,433,376,720
215,115,261,554,116,414,318,636
225,105,252,524,110,423,328,647
243,102,270,498,104,434,343,708
265,138,273,532,94,375,332,720
247,149,279,577,98,363,306,709
249,158,303,628,99,344,307,712
241,159,348,705,107,370,299,702
228,167,368,698,105,435,299,739
223,164,374,733,114,417,351,689
218,156,375,679,119,421,352,672
222,146,377,715,121,446,346,646
222,149,350,674,111,438,347,632
219,152,368,689,117,371,322,531
204,128,382,619,106,386,267,622
230,131,370,640,100,389,250,573
239,128,352,545,100,414,272,664
266,136,373,538,103,403,257,826
228,167,368,698,105,435,299,739
223,164,374,733,114,417,351,689
218,156,375,679,119,421,352,672
222,146,377,715,121,446,346,646
222,149,350,674,111,438,347,632
219,152,368,689,117,371,322,531
204,128,382,619,106,386,267,622
230,131,370,640,100,389,250,573
239,128,352,545,100,414,272,664
266,136,373,538,103,403,257,826
251,126,354,515,99,402,270,816
268,123,317,504,95,417,265,764
290,119,322,479,92,424,280,831
282,119,342,621,97,391,261,783
303,121,327,674,95,384,285,708
318,114,293,718,103,367,268,813
297,107,267,706,103,335,286,827
258,122,304,736,100,348,297,798
248,134,290,617,98,329,319,832
191,124,280,555,111,358,290,800
198,135,350,532,112,420,299,826
196,139,375,622,110,458,305,814
198,129,369,615,119,472,299,823
227,136,400,640,120,477,273,792
220,138,406,703,110,436,266,724
195,130,344,662,96,386,257,600
209,135,352,672,114,422,201,602
207,129,360,689,115,471,182,563
180,115,321,658,108,501,199,617
173,110,337,631,106,500,200,618
198,135,350,532,112,420,299,826
196,139,375,622,110,458,305,814
198,129,369,615,119,472,299,823
227,136,400,640,120,477,273,792
220,138,406,703,110,436,266,724
195,130,344,662,96,386,257,600
209,135,352,672,114,422,201,602
207,129,360,689,115,471,182,563
180,115,321,658,108,501,199,617
173,110,337,631,106,500,200,618
182,111,336,633,115,494,192,583
175,98,296,544,106,430,199,541
191,99,236,456,100,345,191,525
227,95,233,487,99,282,173,451
223,86,176,416,94,281,173,420
252,101,186,464,87,273,171,427
241,99,189,479,71,262,160,399
231,94,190,469,59,209,142,391
194,90,193,448,62,212,138,350
198,99,185,468,67,230,131,350
132,78,188,415,69,235,134,365
147,96,204,398,74,234,145,441
212,123,225,441,79,267,196,477
216,123,230,508,79,275,196,465
235,129,266,633,78,293,214,474
246,133,286,696,81,338,221,494
249,126,287,702,85,352,212,458
226,109,298,700,85,343,198,604
240,111,295,682,84,334,195,623
233,107,278,571,79,314,185,607
132,78,188,415,69,235,134,365
147,96,204,398,74,234,145,441
212,123,225,441,79,267,196,477
216,123,230,508,79,275,196,465
235,129,266,633,78,293,214,474
246,133,286,696,81,338,221,494
249,126,287,702,85,352,212,458
226,109,298,700,85,343,198,604
240,111,295,682,84,334,195,623
233,107,278,571,79,314,185,607
239,100,251,503,80,270,177,604
237,96,251,623,81,273,198,599
196,95,240,616,78,309,187,427
195,96,246,577,76,327,202,473
198,98,236,596,77,322,198,493
189,103,236,603,76,332,221,468
200,107,209,439,76,312,211,494
233,105,212,428,81,301,203,538
233,102,200,433,80,277,187,501
222,96,211,372,81,285,195,477
236,106,220,528,80,276,164,514
228,103,230,529,72,283,148,557
206,99,206,528,70,253,154,548
183,104,225,538,69,295,155,531
185,102,219,557,71,290,156,540
173,86,199,479,68,264,181,541
174,88,195,541,74,246,191,469
166,91,188,579,75,241,185,420
197,95,175,589,77,175,186,421
189,91,167,605,77,152,173,429
236,106,220,528,80,276,164,514
228,103,230,529,72,283,148,557
206,99,206,528,70,253,154,548
183,104,225,538,69,295,155,531
185,102,219,557,71,290,156,540
173,86,199,479,68,264,181,541
174,88,195,541,74,246,191,469
166,91,188,579,75,241,185,420
197,95,175,589,77,175,186,421
189,91,167,605,77,152,173,429
183,99,179,585,85,183,146,433
202,107,195,593,86,212,133,419
226,112,212,617,83,266,142,425
216,109,244,679,87,277,154,430
229,112,236,647,82,284,174,448
253,122,259,606,72,291,183,424
266,123,271,553,70,286,203,465
250,119,269,476,72,256,227,521
245,118,282,478,70,258,221,507
243,116,283,483,69,265,204,495
216,98,272,569,82,250,203,522
184,90,265,608,85,242,185,480
200,82,265,650,88,231,133,470
205,72,222,571,87,259,134,560
200,75,228,584,96,254,149,576
199,88,205,531,83,254,168,588
203,83,183,493,81,262,178,597
185,82,188,455,78,252,176,585
170,80,178,440,78,228,186,504
158,83,201,463,77,236,182,492
216,98,272,569,82,250,203,522
184,90,265,608,85,242,185,480
200,82,265,650,88,231,133,470
205,72,222,571,87,259,134,560
200,75,228,584,96,254,149,576
199,88,205,531,83,254,168,588
203,83,183,493,81,262,178,597
185,82,188,455,78,252,176,585
170,80,178,440,78,228,186,504
158,83,201,463,77,236,182,492
154,73,204,433,83,301,168,432
134,73,205,405,77,324,157,477
147,81,207,427,83,331,155,465
170,86,200,411,85,343,151,484
172,76,179,374,76,352,173,464
180,70,174,386,76,310,174,452
176,74,176,407,75,270,181,384
174,77,189,445,69,278,180,369
173,70,192,470,67,246,178,389
193,79,192,461,69,217,157,459
203,87,200,466,64,189,137,453
202,80,202,485,65,182,129,447
209,76,180,483,69,149,135,437
198,81,192,477,79,160,132,394
185,77,193,470,82,209,132,304
192,75,204,462,80,205,154,373
199,97,229,469,84,227,150,405
193,90,241,425,85,226,155,408
192,87,250,468,81,227,151,471
184,88,253,461,80,197,142,491
203,87,200,466,64,189,137,453
202,80,202,485,65,182,129,447
209,76,180,483,69,149,135,437
198,81,192,477,79,160,132,394
185,77,193,470,82,209,132,304
192,75,204,462,80,205,154,373
199,97,229,469,84,227,150,405
193,90,241,425,85,226,155,408
192,87,250,468,81,227,151,471
184,88,253,461,80,197,142,491
162,86,273,458,85,206,124,449
181,68,247,405,85,196,129,431
166,70,233,406,78,197,139,465
164,81,223,418,75,196,141,412
175,85,226,542,83,189,154,416
177,84,199,585,77,202,150,421
167,91,222,614,74,203,154,418
198,100,242,649,75,205,143,396
197,96,267,640,83,197,145,458
192,100,270,578,71,217,166,448
190,107,273,558,77,216,173,478
177,102,260,546,88,222,180,533
157,114,244,506,89,215,181,543
166,108,217,493,78,219,184,485
215,122,259,491,82,220,154,476
239,123,250,446,79,210,152,494
257,132,271,526,79,242,167,443
247,115,259,518,76,268,210,458
237,117,252,497,84,259,208,471
204,96,191,481,84,243,221,527
190,107,273,558,77,216,173,478
177,102,260,546,88,222,180,533
157,114,244,506,89,215,181,543
166,108,217,493,78,219,184,485
215,122,259,491,82,220,154,476
239,123,250,446,79,210,152,494
257,132,271,526,79,242,167,443
247,115,259,518,76,268,210,458
237,117,252,497,84,259,208,471
204,96,191,481,84,243,221,527
187,90,189,497,86,241,232,523
171,80,161,481,91,236,221,530
182,85,175,475,88,256,214,624
195,87,194,464,84,267,210,630
184,88,191,451,87,284,202,592
175,86,197,458,86,293,205,585
171,79,243,513,71,278,223,603
185,77,240,512,76,268,188,504
187,75,217,517,74,283,218,553
182,69,211,501,67,257,213,547
177,65,229,477,71,247,200,520
170,65,170,306,76,312,215,542
146,73,169,324,74,297,229,512
158,84,205,350,84,290,199,496
186,96,219,345,88,323,231,553
200,102,200,370,81,326,227,540
207,105,200,393,87,279,209,492
219,101,199,384,89,286,194,539
196,91,180,456,76,310,194,493
171,80,195,480,72,284,160,422
177,65,229,477,71,247,200,520
170,65,170,306,76,312,215,542
146,73,169,324,74,297,229,512
158,84,205,350,84,290,199,496
186,96,219,345,88,323,231,553
200,102,200,370,81,326,227,540
207,105,200,393,87,279,209,492
219,101,199,384,89,286,194,539
196,91,180,456,76,310,194,493
171,80,195,480,72,284,160,422
192,81,186,485,74,289,169,525
194,81,179,470,63,309,157,536
197,74,184,493,66,306,156,496
202,79,193,432,70,272,169,530
235,81,189,455,72,274,169,631
218,86,217,487,68,271,170,625
207,88,246,477,65,204,152,603
198,88,237,481,67,187,157,609
218,88,230,477,67,270,174,638
195,88,206,420,64,287,185,544
207,100,186,361,68,291,173,473
226,93,165,500,70,315,194,564
222,102,249,610,71,316,193,594
198,111,276,676,75,285,199,533
196,118,287,708,87,282,196,583
185,104,311,789,111,277,204,591
170,105,309,715,111,282,189,520
168,103,263,592,110,282,200,480
173,92,235,509,109,251,167,491
159,78,222,488,103,229,164,476
207,100,186,361,68,291,173,473
226,93,165,500,70,315,194,564
222,102,249,610,71,316,193,594
198,111,276,676,75,285,199,533
196,118,287,708,87,282,196,583
185,104,311,789,111,277,204,591
170,105,309,715,111,282,189,520
168,103,263,592,110,282,200,480
173,92,235,509,109,251,167,491
159,78,222,488,103,229,164,476
147,77,198,363,74,234,156,475
141,82,199,397,77,230,151,473
146,73,208,473,78,233,141,505
166,73,233,557,82,232,167,574
184,96,239,558,81,230,164,542
172,92,219,578,90,231,159,532
180,93,215,570,99,212,164,544
180,103,205,569,97,206,178,491
172,101,169,466,97,223,160,418
177,83,165,483,97,249,178,461
184,86,187,474,98,240,192,447
174,89,222,537,101,260,185,436
182,88,221,479,100,256,180,488
189,91,223,476,93,262,196,544
182,90,243,447,90,240,200,518
174,93,258,483,85,291,195,510
177,81,224,401,69,273,195,512
172,80,224,403,68,284,192,533
187,89,281,490,65,267,190,501
190,95,275,531,68,272,175,534
184,86,187,474,98,240,192,447
174,89,222,537,101,260,185,436
182,88,221,479,100,256,180,488
189,91,223,476,93,262,196,544
182,90,243,447,90,240,200,518
174,93,258,483,85,291,195,510
177,81,224,401,69,273,195,512
172,80,224,403,68,284,192,533
187,89,281,490,65,267,190,501
190,95,275,531,68,272,175,534
246,106,287,551,61,221,196,657
252,110,318,625,63,237,208,663
264,110,328,712,77,237,215,722
256,105,287,668,78,226,205,742
250,103,283,656,80,229,195,698
243,97,250,588,83,218,169,582
276,109,212,555,109,181,299,550
278,106,198,580,226,158,401,383
287,111,179,681,453,153,540,243
320,121,171,693,498,122,569,230
311,123,161,731,514,122,597,209
301,116,143,710,517,121,561,199
281,113,111,642,570,116,516,175
258,108,152,660,663,108,425,154
256,111,154,717,661,108,401,139
243,106,172,780,665,108,370,135
242,103,211,924,678,108,344,145
246,110,233,952,620,107,341,141
276,112,214,921,363,107,281,143
240,100,227,923,341,104,342,159
311,123,161,731,514,122,597,209
301,116,143,710,517,121,561,199
281,113,111,642,570,116,516,175
258,108,152,660,663,108,425,154
256,111,154,717,661,108,401,139
243,106,172,780,665,108,370,135
242,103,211,924,678,108,344,145
246,110,233,952,620,107,341,141
276,112,214,921,363,107,281,143
240,100,227,923,341,104,342,159
314,93,227,951,324,102,395,165
319,91,215,900,336,103,451,172
357,96,211,946,362,92,447,183
368,97,213,944,397,92,448,186
378,92,224,938,403,99,466,180
329,96,216,961,470,100,431,172
344,100,193,899,456,98,402,183
314,89,168,807,441,100,394,189
279,80,158,751,404,104,415,203
274,80,107,758,367,96,327,188
298,89,122,626,288,79,298,189
251,79,132,582,262,80,250,161
244,73,136,583,227,82,215,182
239,83,144,704,221,106,148,160
242,87,138,673,254,109,198,175
236,85,116,649,380,116,205,172
249,85,114,667,378,117,203,204
298,96,114,678,366,123,201,168
301,89,108,573,362,95,197,170
314,88,114,572,353,100,135,157
298,89,122,626,288,79,298,189
251,79,132,582,262,80,250,161
244,73,136,583,227,82,215,182
239,83,144,704,221,106,148,160
242,87,138,673,254,109,198,175
236,85,116,649,380,116,205,172
249,85,114,667,378,117,203,204
298,96,114,678,366,123,201,168
301,89,108,573,362,95,197,170
314,88,114,572,353,100,135,157
274,73,112,566,221,93,160,166
273,84,105,614,354,111,166,155
216,79,104,590,358,103,172,149
211,83,100,597,368,107,168,153
185,82,93,573,370,101,169,170
178,82,84,564,357,100,165,172
171,73,85,531,217,94,157,147
171,64,85,513,222,102,160,148
189,58,85,524,197,103,159,157
180,50,81,466,183,103,162,167
196,55,95,480,173,104,121,148
212,54,88,442,217,89,171,152
202,59,86,429,213,95,172,162
223,67,89,454,240,85,220,172
241,70,100,470,237,85,219,149
254,86,107,447,229,86,222,153
236,83,108,454,197,89,183,165
252,80,101,518,207,88,220,179
222,75,93,465,187,104,183,161
214,73,86,479,198,102,201,155
258,119,412,736,166,666,422,616
261,124,412,770,171,678,411,757
265,130,383,683,165,651,388,778
259,134,352,721,153,648,379,783
257,138,322,635,139,650,333,724
247,135,342,653,131,642,338,755
194,139,351,636,126,619,424,620
214,143,382,691,132,571,413,618
214,146,372,665,165,637,431,628
206,155,312,689,178,607,439,622
225,165,312,648,185,602,425,592
223,151,297,727,179,571,334,583
226,158,275,659,198,545,348,604
254,165,293,685,181,441,297,609
255,156,297,677,167,419,288,676
240,153,289,767,162,418,311,671
239,157,304,694,168,414,327,706
217,136,338,789,152,406,306,692
190,116,308,802,145,409,304,692
209,118,327,749,143,399,303,631
220,117,335,714,151,402,326,709
219,115,387,747,168,401,309,660
228,120,365,638,159,419,314,714
222,121,387,798,155,379,355,708
223,126,379,848,162,456,369,769
233,124,369,866,153,466,397,748
280,141,325,887,129,479,418,834
287,145,317,948,124,502,410,810
298,158,340,835,130,624,384,780
284,154,336,804,125,641,359,711
220,117,335,714,151,402,326,709
219,115,387,747,168,401,309,660
228,120,365,638,159,419,314,714
222,121,387,798,155,379,355,708
223,126,379,848,162,456,369,769
233,124,369,866,153,466,397,748
280,141,325,887,129,479,418,834
287,145,317,948,124,502,410,810
298,158,340,835,130,624,384,780
284,154,336,804,125,641,359,711
270,152,340,825,122,649,315,658
222,136,321,756,119,685,275,547
225,129,338,739,125,663,296,533
207,116,322,683,127,574,296,562
208,116,329,738,127,494,305,599
203,125,320,657,126,465,294,547
200,121,311,715,128,395,308,553
206,117,277,647,124,437,317,521
198,115,264,646,114,423,311,530
202,112,264,645,107,395,291,468
211,93,300,626,108,382,264,505
213,112,377,617,109,412,249,596
194,116,411,731,105,339,203,565
201,112,402,703,105,385,182,601
