emg_0,emg_1
19,26
20,26
20,23
19,24
18,24
18,21
18,20
17,21
17,19
18,20
17,19
18,19
17,16
17,18
17,18
18,20
19,25
20,28
19,27
20,30
19,30
17,25
18,24
20,26
20,23
19,22
20,24
18,22
20,20
18,23
19,30
17,25
18,24
20,26
20,23
19,22
20,24
18,22
20,20
18,23
20,24
22,23
23,25
21,25
21,24
20,23
17,24
17,23
17,21
18,20
20,21
22,21
21,21
21,22
20,22
18,20
15,19
18,22
18,21
18,23
20,21
22,21
21,21
21,22
20,22
18,20
15,19
18,22
18,21
18,23
18,24
19,28
18,26
17,26
19,26
19,25
20,21
20,22
20,22
21,21
21,20
19,20
18,18
19,19
19,22
19,24
19,24
19,24
19,24
21,24
21,20
19,20
18,18
19,19
19,22
19,24
19,24
19,24
19,24
21,24
24,25
24,27
25,28
25,27
22,25
20,24
20,23
20,22
20,22
20,22
19,22
19,21
17,21
18,20
17,20
17,22
19,23
20,24
20,24
21,23
19,22
19,21
17,21
18,20
17,20
17,22
19,23
20,24
20,24
21,23
21,20
19,18
18,17
20,22
21,22
22,26
21,27
21,26
18,24
17,25
18,22
18,22
20,24
22,24
22,22
20,21
21,22
21,21
19,20
19,25
18,22
18,22
20,24
22,24
22,22
20,21
21,22
21,21
19,20
19,25
23,25
21,24
20,23
21,23
20,20
17,21
19,25
18,25
18,26
17,25
16,23
14,21
15,21
15,21
18,23
19,24
20,23
21,23
20,23
20,24
16,23
14,21
15,21
15,21
18,23
19,24
20,23
21,23
20,23
20,24
20,23
19,22
20,22
21,24
20,23
20,23
21,25
20,24
20,24
19,23
20,24
20,23
18,26
18,27
19,28
18,26
18,27
18,27
17,23
16,23
20,24
20,23
18,26
18,27
19,28
18,26
18,27
18,27
17,23
16,23
18,23
18,21
19,21
20,23
21,23
19,24
19,23
18,22
17,21
15,20
17,17
16,17
16,17
17,19
17,21
15,21
16,21
16,23
16,24
18,22
17,17
16,17
16,17
17,19
17,21
15,21
16,21
16,23
16,24
18,22
18,21
19,22
20,21
18,19
17,21
19,22
18,22
17,22
19,20
19,18
16,22
16,23
17,24
18,26
19,26
21,23
25,23
26,25
25,24
25,26
16,22
16,23
17,24
18,26
19,26
21,23
25,23
26,25
25,24
25,26
24,26
21,26
20,23
21,23
20,24
19,23
22,25
21,27
22,29
24,28
23,28
22,27
22,26
21,23
18,23
18,25
16,25
15,25
14,25
14,22
23,28
22,27
22,26
21,23
18,23
18,25
16,25
15,25
14,25
14,22
14,21
16,20
17,19
18,21
20,22
20,20
18,22
17,23
16,22
16,24
17,26
18,25
19,25
19,26
18,24
18,24
18,23
18,24
18,24
18,25
17,26
18,25
19,25
19,26
18,24
18,24
18,23
18,24
18,24
18,25
17,25
21,25
19,24
19,25
19,23
21,26
20,28
20,29
20,28
21,30
19,26
17,23
16,21
18,21
17,20
16,19
15,19
17,20
19,22
20,22
51,79
52,81
48,79
51,87
48,81
50,83
52,84
54,82
49,68
47,65
46,61
170,79
218,83
227,94
308,119
338,144
357,155
363,155
372,153
336,141
353,121
348,98
339,99
357,100
349,88
347,79
325,73
334,67
322,62
331,68
353,121
348,98
339,99
357,100
349,88
347,79
325,73
334,67
322,62
331,68
407,82
425,91
436,95
463,108
446,111
357,100
318,90
282,91
251,80
267,75
259,73
251,70
243,63
226,50
275,49
282,50
282,49
274,43
248,38
161,34
259,73
251,70
243,63
226,50
275,49
282,50
282,49
274,43
248,38
161,34
107,30
103,32
117,34
120,36
119,30
120,40
137,41
127,44
140,44
150,51
154,46
120,44
133,40
139,44
149,42
162,45
171,50
178,50
167,47
173,47
154,46
120,44
133,40
139,44
149,42
162,45
171,50
178,50
167,47
173,47
164,44
170,37
152,37
151,36
161,34
166,33
157,34
150,35
139,33
97,31
73,30
68,27
67,26
68,26
55,25
63,23
86,28
114,28
149,32
156,34
73,30
68,27
67,26
68,26
55,25
63,23
86,28
114,28
149,32
156,34
154,39
140,38
129,39
91,40
80,39
76,35
74,32
49,32
39,27
34,25
35,33
33,34
34,34
42,35
61,35
61,31
84,33
87,36
85,37
88,43
35,33
33,34
34,34
42,35
61,35
61,31
84,33
87,36
85,37
88,43
97,42
127,43
137,43
156,45
150,40
155,41
118,39
111,35
82,38
89,39
69,37
69,37
60,38
90,30
107,33
111,32
112,34
112,33
87,33
53,27
69,37
69,37
60,38
90,30
107,33
111,32
112,34
112,33
87,33
53,27
43,34
38,36
39,39
46,40
56,41
56,37
53,32
55,30
51,29
42,28
39,29
39,29
59,33
59,32
58,33
59,32
61,35
40,29
39,30
36,28
39,29
39,29
59,33
59,32
58,33
59,32
61,35
40,29
39,30
36,28
35,31
40,29
39,29
37,32
42,33
44,34
36,32
37,35
39,34
41,38
43,34
42,35
42,34
40,33
34,28
34,28
35,29
37,27
37,28
36,28
43,34
42,35
42,34
40,33
34,28
34,28
35,29
37,27
37,28
36,28
39,29
42,29
42,28
41,28
45,29
39,26
39,27
37,29
39,28
36,28
40,30
37,28
41,28
44,28
43,27
40,25
42,29
39,29
38,29
39,31
40,30
37,28
41,28
44,28
43,27
40,25
42,29
39,29
38,29
39,31
39,33
42,30
42,29
41,34
41,31
42,29
42,31
44,35
41,31
42,32
40,32
36,35
35,32
36,32
34,32
40,35
44,34
47,34
47,33
44,32
40,32
36,35
35,32
36,32
34,32
40,35
44,34
47,34
47,33
44,32
42,28
37,25
35,24
39,22
40,24
40,25
39,26
40,27
40,27
40,29
37,30
39,30
37,33
36,33
40,34
41,35
38,35
36,34
38,33
33,29
37,30
39,30
37,33
36,33
40,34
41,35
38,35
36,34
38,33
33,29
31,26
34,26
31,27
26,27
26,28
30,32
30,35
30,34
29,33
29,34
28,35
33,44
53,78
60,92
62,100
62,100
64,105
66,106
63,99
63,94
43,64
42,61
40,61
38,61
42,60
41,59
43,59
97,63
233,76
303,97
312,105
335,107
388,122
363,116
324,112
328,111
310,112
248,98
300,99
351,88
350,76
379,77
419,87
389,94
344,115
362,141
351,156
309,149
356,148
372,139
350,76
379,77
419,87
389,94
344,115
362,141
351,156
309,149
356,148
372,139
394,131
385,110
374,112
286,105
259,93
280,69
320,73
322,65
324,61
311,60
230,56
230,45
235,43
235,40
238,39
235,38
162,37
122,34
105,35
91,35
230,56
230,45
235,43
235,40
238,39
235,38
162,37
122,34
105,35
91,35
72,32
43,32
39,33
68,30
69,29
71,36
92,38
138,40
133,41
138,40
141,34
131,32
86,31
94,31
89,29
84,29
81,28
73,27
85,27
86,28
141,34
131,32
86,31
94,31
89,29
84,29
81,28
73,27
85,27
86,28
90,29
92,31
97,35
71,35
104,33
103,33
106,32
101,31
99,32
81,37
83,37
100,37
100,37
99,37
87,34
120,35
107,37
108,33
109,33
107,35
83,37
100,37
100,37
99,37
87,34
120,35
107,37
108,33
109,33
107,35
61,35
54,34
56,33
57,32
75,33
72,33
78,33
95,36
94,38
79,36
80,33
105,34
109,38
117,37
126,36
125,34
103,36
79,32
85,33
94,34
80,33
105,34
109,38
117,37
126,36
125,34
103,36
79,32
85,33
94,34
101,36
105,34
105,29
103,31
85,33
76,32
72,33
68,37
75,35
89,33
90,33
98,32
99,28
79,24
78,28
76,29
74,31
77,30
79,33
62,31
90,33
98,32
99,28
79,24
78,28
76,29
74,31
77,30
79,33
62,31
90,31
89,28
89,32
89,30
95,29
86,28
76,27
73,24
71,25
67,25
52,26
51,27
48,26
46,29
36,29
25,27
25,27
22,27
23,22
19,21
52,26
51,27
48,26
46,29
36,29
25,27
25,27
22,27
23,22
19,21
20,23
22,24
25,25
24,26
35,29
40,33
41,32
41,33
42,35
35,33
28,27
33,30
33,27
31,25
33,28
33,29
24,26
25,29
28,29
36,30
28,27
33,30
33,27
31,25
33,28
33,29
24,26
25,29
28,29
36,30
36,31
37,32
36,31
33,31
20,27
24,29
26,30
26,29
28,29
30,32
26,28
25,26
24,28
21,28
21,24
29,23
30,25
31,25
30,24
31,26
26,28
25,26
24,28
21,28
21,24
29,23
30,25
31,25
30,24
31,26
25,26
25,26
28,26
31,26
29,26
30,28
29,28
26,26
29,27
31,27
34,25
36,24
36,27
33,28
32,25
32,28
31,29
31,28
29,27
30,31
34,25
36,24
36,27
33,28
32,25
32,28
31,29
31,28
29,27
30,31
24,35
21,32
26,31
34,36
34,34
34,32
36,33
33,33
25,30
26,30
27,28
25,28
23,30
24,29
22,29
22,27
33,30
34,26
33,26
34,27
27,28
25,28
23,30
24,29
22,29
22,27
33,30
34,26
33,26
34,27
34,28
25,24
27,26
36,26
36,24
36,25
35,26
34,26
31,28
31,29
29,29
30,29
30,29
24,31
24,32
33,34
32,32
30,33
30,28
31,32
495,165
461,171
337,149
409,128
404,114
384,81
369,66
362,59
212,52
161,45
111,41
83,36
60,33
50,34
40,34
30,34
23,34
21,33
17,30
17,30
19,29
20,25
20,24
21,23
21,26
21,27
19,28
23,33
22,34
23,33
19,29
20,25
20,24
21,23
21,26
21,27
19,28
23,33
22,34
23,33
21,31
21,32
18,25
18,26
19,23
22,34
24,36
24,39
26,40
25,40
23,32
23,31
22,28
22,25
23,29
23,28
23,28
23,28
23,29
23,27
23,32
23,31
22,28
22,25
23,29
23,28
23,28
23,28
23,29
23,27
25,29
24,28
23,32
23,31
21,29
22,29
21,30
21,26
20,27
24,33
22,33
23,33
25,34
25,33
21,30
23,32
21,31
23,33
25,32
24,28
22,33
23,33
25,34
25,33
21,30
23,32
21,31
23,33
25,32
24,28
24,24
23,23
20,20
18,20
20,22
20,24
20,26
21,28
21,30
21,34
21,37
21,36
20,34
20,33
20,28
19,25
19,24
20,26
21,29
20,29
21,37
21,36
20,34
20,33
20,28
19,25
19,24
20,26
21,29
20,29
20,27
19,27
19,28
17,25
17,25
16,24
17,25
18,23
18,23
18,22
19,23
18,22
19,23
20,26
22,28
22,26
23,27
22,26
21,22
21,22
19,23
18,22
19,23
20,26
22,28
22,26
23,27
22,26
21,22
21,22
21,26
21,26
20,25
22,28
21,27
21,23
20,24
21,23
20,22
21,24
24,25
23,24
24,25
23,24
23,24
19,24
22,24
21,26
23,26
24,28
24,25
23,24
24,25
23,24
23,24
19,24
22,24
21,26
23,26
24,28
25,26
24,29
23,26
22,27
23,24
22,25
21,22
20,24
20,25
16,25
20,27
19,27
21,27
21,25
21,25
20,21
20,21
20,21
20,22
20,22
20,27
19,27
21,27
21,25
21,25
20,21
20,21
20,21
20,22
20,22
19,23
19,23
18,24
25,30
26,33
28,36
28,37
29,35
24,32
24,32
23,29
23,27
22,28
22,27
21,28
19,27
20,28
20,29
19,26
20,22
23,29
23,27
22,28
22,27
21,28
19,27
20,28
20,29
19,26
20,22
21,25
21,26
22,26
21,27
21,27
20,23
21,22
21,23
23,27
25,28
26,30
25,29
25,30
24,27
21,26
22,24
20,23
21,20
20,21
23,26
26,30
25,29
25,30
24,27
21,26
22,24
20,23
21,20
20,21
23,26
24,27
25,28
25,28
25,29
23,28
21,26
22,25
22,28
20,24
21,24
21,25
19,28
19,26
21,26
20,24
21,26
20,27
20,27
22,30
23,30
21,25
19,28
19,26
21,26
20,24
21,26
20,27
20,27
22,30
23,30
22,28
24,28
27,29
24,26
24,25
24,27
23,25
22,23
23,25
24,27
22,25
22,25
20,26
19,25
18,23
19,23
20,25
19,23
20,22
19,22
22,25
22,25
20,26
19,25
18,23
19,23
20,25
19,23
20,22
19,22
22,24
23,21
24,22
23,24
24,24
23,24
23,24
23,26
23,27
24,28
25,31
30,43
32,48
40,59
43,61
42,63
39,57
39,57
40,55
39,63
114,83
278,96
363,109
396,110
417,111
517,115
519,103
549,106
548,112
628,114
563,117
509,126
433,111
511,113
472,119
449,112
461,106
446,109
331,96
211,82
211,70
169,57
184,43
170,46
164,44
160,40
153,45
129,50
111,47
123,48
211,70
169,57
184,43
170,46
164,44
160,40
153,45
129,50
111,47
123,48
150,47
154,43
161,37
161,35
139,34
136,38
137,33
145,31
170,37
174,40
157,38
158,39
148,39
114,39
133,39
122,39
110,38
107,39
115,36
86,36
157,38
158,39
148,39
114,39
133,39
122,39
110,38
107,39
115,36
86,36
80,43
78,44
77,52
76,56
69,54
75,49
77,49
83,38
74,33
71,32
66,30
73,33
81,42
102,42
104,42
106,44
103,41
92,33
65,31
63,32
66,30
73,33
81,42
102,42
104,42
106,44
103,41
92,33
65,31
63,32
55,33
72,33
72,34
86,36
99,34
101,33
84,35
84,32
82,30
97,35
99,34
102,32
109,35
102,33
72,31
66,32
75,33
82,32
83,33
87,31
99,34
102,32
109,35
102,33
72,31
66,32
75,33
82,32
83,33
87,31
92,33
89,34
84,33
85,33
84,36
81,38
84,36
93,37
95,41
92,37
96,33
94,36
75,36
67,35
98,40
105,40
97,39
99,41
99,40
75,36
96,33
94,36
75,36
67,35
98,40
105,40
97,39
99,41
99,40
75,36
60,36
63,35
56,31
65,28
65,27
80,30
78,31
84,29
81,30
92,33
87,33
96,31
94,31
101,41
87,38
77,37
72,37
74,37
83,25
86,27
87,33
96,31
94,31
101,41
87,38
77,37
72,37
74,37
83,25
86,27
95,26
94,31
91,34
68,37
66,36
53,37
44,37
51,35
52,32
54,32
54,30
54,26
89,28
92,30
89,31
90,32
90,32
48,30
42,28
52,29
54,30
54,26
89,28
92,30
89,31
90,32
90,32
48,30
42,28
52,29
51,28
58,27
57,27
58,28
58,30
56,29
51,29
52,30
62,33
51,30
51,31
49,33
48,34
33,31
29,29
29,33
64,36
66,37
67,40
68,40
51,31
49,33
48,34
33,31
29,29
29,33
64,36
66,37
67,40
68,40
70,39
41,34
37,33
34,29
34,32
31,36
30,36
31,36
30,36
46,40
49,33
49,33
51,35
52,36
55,33
61,36
62,37
66,38
66,39
66,38
49,33
49,33
51,35
52,36
55,33
61,36
62,37
66,38
66,39
66,38
59,36
57,34
53,33
55,30
53,31
51,33
54,35
53,34
49,34
33,34
54,35
60,37
60,36
60,38
62,39
64,38
59,34
60,37
60,37
59,35
54,35
60,37
60,36
60,38
62,39
64,38
59,34
60,37
60,37
59,35
35,37
29,37
26,33
27,33
26,36
25,32
27,31
26,33
24,34
22,32
22,33
19,34
19,34
22,37
22,35
22,37
23,36
24,37
23,33
22,36
22,33
19,34
19,34
22,37
22,35
22,37
23,36
24,37
23,33
22,36
23,40
26,47
33,52
35,54
36,55
37,55
38,53
36,49
34,49
44,60
54,71
56,75
63,92
72,114
68,112
78,128
87,144
89,145
100,154
107,159
323,71
344,69
350,78
306,73
315,73
301,71
321,71
325,59
328,69
304,77
299,77
273,81
278,80
283,71
313,95
323,100
301,104
254,105
296,121
272,96
323,110
325,105
325,107
274,92
271,90
237,71
351,81
427,87
437,93
444,100
323,110
325,105
325,107
274,92
271,90
237,71
351,81
427,87
437,93
444,100
427,94
377,91
295,83
313,75
300,69
285,65
233,61
234,59
185,56
234,56
242,59
266,62
269,61
284,63
244,57
245,54
241,52
238,63
234,67
236,72
242,59
266,62
269,61
284,63
244,57
245,54
241,52
238,63
234,67
236,72
258,81
251,80
280,74
268,68
280,69
259,61
248,56
207,51
226,55
204,49
208,46
206,45
197,45
179,39
199,51
201,52
182,53
190,55
205,56
209,49
208,46
206,45
197,45
179,39
199,51
201,52
182,53
190,55
205,56
209,49
189,47
233,54
230,53
229,51
223,48
229,53
192,55
201,58
206,63
196,63
191,59
194,52
193,48
216,53
252,63
268,69
271,70
270,72
233,63
196,57
191,59
194,52
193,48
216,53
252,63
268,69
271,70
270,72
233,63
196,57
185,48
182,52
172,52
189,53
174,49
165,61
157,54
194,57
169,57
188,62
183,52
179,52
154,45
156,44
164,43
167,43
184,49
207,57
214,55
203,54
183,52
179,52
154,45
156,44
164,43
167,43
184,49
207,57
214,55
203,54
215,57
210,55
178,50
170,51
157,59
137,59
134,60
125,57
130,57
148,47
152,47
138,43
158,47
148,46
145,43
138,38
148,43
123,45
132,48
127,48
152,47
138,43
158,47
148,46
145,43
138,38
148,43
123,45
132,48
127,48
134,48
131,43
121,36
106,32
91,31
78,32
58,35
88,42
145,47
149,53
155,60
161,64
172,59
149,57
145,54
141,48
154,45
167,50
166,53
176,52
155,60
161,64
172,59
149,57
145,54
141,48
154,45
167,50
166,53
176,52
180,51
166,45
130,39
121,37
109,38
100,38
154,47
160,51
155,52
168,53
168,52
128,46
131,53
135,52
148,51
164,56
172,59
186,54
221,58
213,57
168,52
128,46
131,53
135,52
148,51
164,56
172,59
186,54
221,58
213,57
218,54
214,52
200,48
177,41
165,42
144,44
136,42
160,51
143,52
149,52
152,48
158,48
133,43
124,40
111,38
101,38
106,37
112,30
141,29
144,31
152,48
158,48
133,43
124,40
111,38
101,38
106,37
112,30
141,29
144,31
158,35
149,38
167,49
163,50
160,49
159,50
161,48
134,37
129,41
140,42
127,45
121,46
111,48
104,48
119,51
141,50
184,58
189,57
182,54
164,51
127,45
121,46
111,48
104,48
119,51
141,50
184,58
189,57
182,54
164,51
161,51
117,41
119,38
132,40
137,48
122,44
124,43
118,45
124,46
122,38
126,37
144,46
147,46
140,43
150,40
142,42
117,31
134,34
129,38
129,41
126,37
144,46
147,46
140,43
150,40
142,42
117,31
134,34
129,38
129,41
133,40
136,42
127,41
124,42
129,41
132,40
135,39
150,37
156,33
141,33
139,36
129,35
138,40
129,41
128,44
125,48
122,53
69,53
59,61
54,64
356,85
379,95
392,89
321,92
285,92
314,86
326,90
308,96
314,92
307,87
292,86
352,91
389,87
385,80
388,86
374,90
288,87
278,90
267,88
301,87
302,86
293,68
254,60
285,68
256,61
248,55
246,57
229,59
222,52
196,54
302,86
293,68
254,60
285,68
256,61
248,55
246,57
229,59
222,52
196,54
259,69
276,72
278,75
268,78
274,76
230,69
259,77
273,77
260,77
272,79
266,74
222,59
190,57
213,58
206,59
238,65
240,68
254,66
243,61
253,69
266,74
222,59
190,57
213,58
206,59
238,65
240,68
254,66
243,61
253,69
232,66
220,64
211,65
213,68
220,59
211,60
214,60
199,56
197,57
158,59
146,60
155,65
172,66
159,61
180,62
190,61
202,53
198,49
208,50
203,41
146,60
155,65
172,66
159,61
180,62
190,61
202,53
198,49
208,50
203,41
213,47
199,50
202,55
198,62
209,65
194,58
184,59
193,62
185,55
172,57
178,61
216,59
197,54
191,55
176,51
171,48
153,47
161,49
161,44
162,47
178,61
216,59
197,54
191,55
176,51
171,48
153,47
161,49
161,44
162,47
155,47
138,49
151,54
162,56
188,59
213,59
225,59
209,51
224,53
215,50
212,46
196,46
202,47
220,48
216,46
218,48
249,50
258,55
225,52
221,51
212,46
196,46
202,47
220,48
216,46
218,48
249,50
258,55
225,52
221,51
230,54
211,58
200,54
209,57
204,58
169,52
160,50
160,51
147,44
166,45
164,48
161,43
199,48
206,51
203,52
205,50
203,50
161,41
197,43
225,50
164,48
161,43
199,48
206,51
203,52
205,50
203,50
161,41
197,43
225,50
225,53
235,55
239,55
220,59
194,54
211,55
195,53
197,58
176,51
168,50
151,46
152,47
161,42
171,48
163,44
148,44
162,50
150,48
157,44
164,47
151,46
152,47
161,42
171,48
163,44
148,44
162,50
150,48
157,44
164,47
165,53
153,50
153,51
141,53
143,55
148,50
159,45
156,44
149,40
173,39
173,38
178,42
171,41
178,47
148,43
170,43
151,39
154,39
165,50
173,53
173,38
178,42
171,41
178,47
148,43
170,43
151,39
154,39
165,50
173,53
195,59
193,60
196,62
204,55
213,52
175,45
182,44
186,49
160,48
147,52
155,52
160,53
147,45
168,43
170,41
160,41
158,42
166,43
165,46
161,43
155,52
160,53
147,45
168,43
170,41
160,41
158,42
166,43
165,46
161,43
168,42
169,44
184,51
160,47
146,50
138,52
138,53
112,45
113,46
134,43
127,42
127,43
131,46
130,44
112,44
111,43
106,44
88,44
80,42
73,45
127,42
127,43
131,46
130,44
112,44
111,43
106,44
88,44
80,42
73,45
68,46
38,49
34,48
48,49
49,45
64,45
74,38
75,38
72,37
79,37
77,35
79,39
95,37
96,39
93,41
87,43
84,51
93,55
93,56
98,57
77,35
79,39
95,37
96,39
93,41
87,43
84,51
93,55
93,56
98,57
97,56
100,49
80,47
75,47
67,48
70,62
61,66
57,68
61,75
67,99
69,113
66,119
66,122
64,129
61,114
56,94
57,93
63,101
65,103
71,133
449,119
384,107
343,98
313,87
286,81
276,69
300,77
281,74
241,58
217,56
210,60
263,63
281,66
305,71
323,76
317,71
276,74
258,71
239,68
232,69
234,68
181,53
182,56
199,63
191,61
193,63
197,63
216,67
195,65
187,62
234,68
181,53
182,56
199,63
191,61
193,63
197,63
216,67
195,65
187,62
180,59
192,62
184,56
196,51
201,51
211,55
205,55
197,55
218,64
231,63
211,60
214,56
206,51
177,41
150,40
175,44
162,44
158,44
148,46
179,52
211,60
214,56
206,51
177,41
150,40
175,44
162,44
158,44
148,46
179,52
185,52
199,52
202,53
193,55
161,49
148,51
158,55
163,58
163,55
175,55
153,52
139,50
139,47
156,49
143,50
181,51
183,50
176,50
161,46
161,44
153,52
139,50
139,47
156,49
143,50
181,51
183,50
176,50
161,46
161,44
112,40
100,41
122,45
138,48
148,48
169,54
169,53
158,49
150,47
151,51
126,47
138,45
150,47
154,44
183,46
196,47
187,50
176,53
171,54
164,56
126,47
138,45
150,47
154,44
183,46
196,47
187,50
176,53
171,54
164,56
182,57
192,58
194,57
197,57
173,54
158,51
158,47
163,44
160,47
163,47
147,45
138,45
130,45
128,42
133,42
147,45
130,44
160,51
160,47
156,46
147,45
138,45
130,45
128,42
133,42
147,45
130,44
160,51
160,47
156,46
164,48
169,49
148,44
155,49
145,52
123,47
130,44
119,42
117,41
112,37
118,42
151,46
181,53
180,52
190,51
185,50
147,54
110,50
106,49
126,48
118,42
151,46
181,53
180,52
190,51
185,50
147,54
110,50
106,49
126,48
130,50
133,42
137,38
135,41
99,42
96,40
112,47
139,53
136,51
145,51
159,57
156,55
138,54
159,55
161,55
193,52
216,49
220,45
211,44
212,49
159,57
156,55
138,54
159,55
161,55
193,52
216,49
220,45
211,44
212,49
172,45
141,52
124,52
175,55
170,50
164,50
159,43
161,43
101,41
125,49
140,47
143,45
139,46
142,44
146,41
149,43
157,48
156,47
158,49
129,46
140,47
143,45
139,46
142,44
146,41
149,43
157,48
156,47
158,49
129,46
119,46
107,42
108,39
99,42
136,45
153,51
180,53
202,59
218,57
202,58
182,52
161,53
141,52
124,52
155,51
186,55
183,52
177,51
171,48
173,46
182,52
161,53
141,52
124,52
155,51
186,55
183,52
177,51
171,48
173,46
151,42
162,47
164,43
161,43
134,42
147,50
140,51
141,51
158,53
157,51
135,42
162,40
197,46
226,44
244,43
246,42
229,45
210,40
165,43
135,45
135,42
162,40
197,46
226,44
244,43
246,42
229,45
210,40
165,43
135,45
142,45
131,41
136,49
138,48
150,47
146,53
148,53
124,49
117,49
92,51
80,46
70,48
62,48
58,47
75,52
73,61
75,68
97,70
98,71
94,74
80,46
70,48
62,48
58,47
75,52
73,61
75,68
97,70
98,71
94,74
97,66
96,60
72,58
71,60
47,49
40,53
35,52
36,57
39,59
39,60
40,59
46,73
47,75
46,82
48,87
59,104
58,105
62,103
76,136
81,137
274,88
203,88
191,92
228,92
242,88
252,87
261,85
263,73
233,68
279,67
272,69
294,71
301,73
291,73
223,67
278,81
307,95
324,99
325,99
328,98
275,83
224,64
186,62
199,62
202,65
198,62
195,64
213,57
196,55
227,56
275,83
224,64
186,62
199,62
202,65
198,62
195,64
213,57
196,55
227,56
235,62
262,73
248,72
241,72
223,71
215,69
172,70
175,74
177,74
175,77
187,77
184,67
186,64
211,67
195,67
176,66
170,63
170,61
155,57
151,50
187,77
184,67
186,64
211,67
195,67
176,66
170,63
170,61
155,57
151,50
161,47
164,42
167,42
153,44
147,46
144,47
140,48
127,50
138,49
138,48
163,47
227,53
239,53
240,57
247,55
258,59
265,62
263,65
267,62
264,65
163,47
227,53
239,53
240,57
247,55
258,59
265,62
263,65
267,62
264,65
239,60
180,54
161,48
165,45
193,41
188,46
185,46
210,50
199,54
185,57
195,61
187,58
191,63
182,65
180,61
198,54
201,55
193,52
230,55
242,59
195,61
187,58
191,63
182,65
180,61
198,54
201,55
193,52
230,55
242,59
218,58
223,60
208,59
174,50
147,54
188,58
198,62
214,62
209,64
226,61
211,62
196,56
177,52
193,51
174,45
165,41
166,41
167,43
153,49
153,51
211,62
196,56
177,52
193,51
174,45
165,41
166,41
167,43
153,49
153,51
158,51
151,50
146,47
149,41
156,46
151,47
164,47
156,48
150,48
140,41
125,39
110,37
112,41
129,43
125,50
131,52
141,56
169,58
153,54
163,50
125,39
110,37
112,41
129,43
125,50
131,52
141,56
169,58
153,54
163,50
157,45
185,58
186,62
183,64
192,65
203,68
187,57
167,51
216,51
215,53
218,59
222,59
232,59
197,60
196,62
193,58
182,55
178,52
186,50
167,40
218,59
222,59
232,59
197,60
196,62
193,58
182,55
178,52
186,50
167,40
156,33
164,37
164,38
154,45
167,51
177,53
179,54
170,61
178,58
165,52
158,50
151,52
166,52
150,50
161,56
168,62
175,61
164,58
164,59
169,56
158,50
151,52
166,52
150,50
161,56
168,62
175,61
164,58
164,59
169,56
164,56
139,52
138,46
163,44
164,48
167,39
187,45
178,49
159,52
144,51
145,61
149,57
184,55
189,51
190,48
184,39
169,46
143,47
151,49
152,50
145,61
149,57
184,55
189,51
190,48
184,39
169,46
143,47
151,49
152,50
150,48
152,46
148,53
160,55
158,55
174,61
170,57
164,55
137,50
153,56
132,53
125,53
124,48
117,50
85,45
65,38
58,38
54,39
41,43
93,41
132,53
125,53
124,48
117,50
85,45
65,38
58,38
54,39
41,43
93,41
154,49
158,49
162,49
172,44
151,46
100,46
124,48
150,48
139,51
138,49
132,43
103,42
50,41
48,43
66,43
65,48
66,51
81,53
81,51
74,73
132,43
103,42
50,41
48,43
66,43
65,48
66,51
81,53
81,51
74,73
73,75
73,80
59,81
57,83
50,76
52,82
51,85
50,89
59,93
57,93
62,112
69,118
86,143
91,158
91,157
88,154
83,157
68,137
73,138
85,152
224,54
183,52
140,50
117,41
103,38
113,38
120,40
117,37
109,38
101,43
116,44
140,44
149,45
171,45
196,41
193,41
183,37
182,37
171,35
157,36
148,37
157,43
159,48
155,49
162,50
176,51
161,45
169,42
171,41
151,37
148,37
157,43
159,48
155,49
162,50
176,51
161,45
169,42
171,41
151,37
148,35
165,42
153,41
159,45
164,45
141,44
115,37
131,39
119,38
116,39
119,40
125,45
94,41
105,43
108,41
136,40
141,38
143,40
136,36
132,37
119,40
125,45
94,41
105,43
108,41
136,40
141,38
143,40
136,36
132,37
113,35
96,35
118,35
122,33
122,30
125,37
132,38
114,41
107,41
106,43
93,43
90,43
87,42
79,45
81,46
98,44
107,44
130,45
160,44
167,44
93,43
90,43
87,42
79,45
81,46
98,44
107,44
130,45
160,44
167,44
174,41
173,44
172,43
144,43
156,42
149,47
143,44
160,46
166,42
159,45
154,41
151,37
116,31
121,36
111,34
121,36
122,35
120,34
107,31
133,45
154,41
151,37
116,31
121,36
111,34
121,36
122,35
120,34
107,31
133,45
129,45
135,48
135,47
134,47
102,34
105,34
100,32
99,35
115,40
111,41
96,38
101,37
140,40
136,40
141,40
140,45
135,47
97,43
96,38
93,36
96,38
101,37
140,40
136,40
141,40
140,45
135,47
97,43
96,38
93,36
123,33
120,32
118,31
118,34
135,37
104,35
105,34
101,33
99,32
77,31
81,32
91,33
114,34
107,35
110,36
123,36
136,37
120,40
121,40
123,42
81,32
91,33
114,34
107,35
110,36
123,36
136,37
120,40
121,40
123,42
140,41
126,42
127,45
129,45
120,40
89,43
93,43
89,38
92,44
103,46
107,44
115,42
117,41
131,39
131,36
145,35
137,36
136,38
126,35
127,37
107,44
115,42
117,41
131,39
131,36
145,35
137,36
136,38
126,35
127,37
103,44
101,45
117,46
114,46
119,44
140,43
147,43
137,39
133,40
129,43
104,35
122,33
121,35
123,34
113,29
113,38
75,39
73,38
102,47
112,47
104,35
122,33
121,35
123,34
113,29
113,38
75,39
73,38
102,47
112,47
121,43
129,45
147,49
139,40
129,41
127,47
117,46
110,43
95,45
114,47
113,45
117,43
109,45
124,43
130,40
133,37
134,35
128,33
150,40
134,44
113,45
117,43
109,45
124,43
130,40
133,37
134,35
128,33
150,40
134,44
131,43
130,45
129,42
83,36
96,32
93,30
104,29
114,38
113,39
102,40
97,40
93,42
112,39
125,40
133,41
135,41
137,38
114,34
151,29
148,34
97,40
93,42
112,39
125,40
133,41
135,41
137,38
114,34
151,29
148,34
144,33
132,33
134,34
69,36
69,33
78,39
77,40
72,39
69,44
56,42
33,43
34,52
36,66
39,73
42,78
41,76
36,73
36,63
34,53
30,50
33,43
34,52
36,66
39,73
42,78
41,76
36,73
36,63
34,53
30,50
31,50
31,46
30,51
29,47
29,44
31,45
33,48
34,47
34,52
36,61
38,68
44,90
49,105
56,112
64,122
75,146
79,143
77,133
78,136
77,130
288,80
276,77
474,78
508,71
595,84
645,97
652,106
546,105
531,108
569,121
569,119
567,112
553,110
523,101
412,89
341,87
337,87
362,90
377,91
328,90
324,89
330,101
277,97
259,96
280,86
294,83
269,68
254,63
237,58
250,65
324,89
330,101
277,97
259,96
280,86
294,83
269,68
254,63
237,58
250,65
249,66
259,63
281,64
277,70
235,54
237,52
243,54
221,53
230,50
247,54
228,49
209,46
214,46
212,41
178,39
190,49
210,52
254,62
251,65
261,66
228,49
209,46
214,46
212,41
178,39
190,49
210,52
254,62
251,65
261,66
252,61
233,59
209,49
219,51
218,49
209,48
233,47
224,45
197,42
194,45
198,44
165,48
134,54
136,51
124,50
101,50
182,66
212,67
219,67
233,65
198,44
165,48
134,54
136,51
124,50
101,50
182,66
212,67
219,67
233,65
246,66
202,44
172,43
165,44
139,48
116,47
98,48
93,45
98,45
94,41
116,40
110,43
112,40
137,43
206,60
201,61
222,59
234,60
223,58
164,41
116,40
110,43
112,40
137,43
206,60
201,61
222,59
234,60
223,58
164,41
182,40
191,42
180,40
171,38
176,39
150,41
101,42
111,40
114,43
101,41
95,38
118,38
114,42
119,42
127,43
148,46
143,45
139,41
134,39
148,39
95,38
118,38
114,42
119,42
127,43
148,46
143,45
139,41
134,39
148,39
169,43
167,45
166,47
181,46
180,47
173,41
165,39
167,35
165,40
152,41
139,39
152,37
143,41
123,38
127,36
105,40
93,38
96,39
100,40
87,41
139,39
152,37
143,41
123,38
127,36
105,40
93,38
96,39
100,40
87,41
100,39
112,52
112,50
108,46
110,46
91,44
60,33
68,34
71,33
89,33
114,39
116,38
112,39
134,39
134,39
131,35
153,37
161,39
142,38
151,39
114,39
116,38
112,39
134,39
134,39
131,35
153,37
161,39
142,38
151,39
137,37
120,35
111,32
116,32
94,30
104,30
97,32
106,31
104,31
99,33
86,33
80,31
80,38
77,42
111,44
119,44
134,45
124,40
128,38
134,37
86,33
80,31
80,38
77,42
111,44
119,44
134,45
124,40
128,38
134,37
148,39
139,40
140,39
142,37
124,37
105,35
99,32
94,31
81,30
55,26
79,32
94,32
127,36
161,39
175,43
168,39
165,38
158,41
202,49
207,46
79,32
94,32
127,36
161,39
175,43
168,39
165,38
158,41
202,49
207,46
206,49
206,55
200,52
121,42
98,43
97,41
101,35
88,35
87,34
82,31
76,32
67,30
69,33
79,32
92,42
91,45
101,50
105,47
116,48
108,40
76,32
67,30
69,33
79,32
92,42
91,45
101,50
105,47
116,48
108,40
116,36
108,30
101,30
81,32
80,34
66,35
54,38
56,47
52,49
58,48
61,59
62,61
62,61
62,64
55,75
55,73
54,78
52,79
52,79
46,79
61,59
62,61
62,61
62,64
55,75
55,73
54,78
52,79
52,79
46,79
41,81
42,77
45,81
50,81
50,79
52,74
50,77
47,72
51,77
50,81
52,81
72,104
73,106
74,110
76,108
76,114
68,106
68,102
68,103
76,120
313,83
316,75
304,65
305,65
311,64
249,52
307,55
328,62
328,54
316,60
306,60
271,64
238,58
232,63
221,59
250,61
236,54
234,55
243,52
235,48
191,45
193,47
228,59
213,56
225,58
222,54
239,65
203,50
201,50
200,48
191,45
193,47
228,59
213,56
225,58
222,54
239,65
203,50
201,50
200,48
236,58
202,48
212,54
219,56
206,57
153,48
171,48
190,43
184,40
189,40
191,36
176,31
160,31
180,32
178,31
175,34
182,36
165,34
148,37
159,40
191,36
176,31
160,31
180,32
178,31
175,34
182,36
165,34
148,37
159,40
179,42
163,42
171,41
177,43
160,40
143,37
142,35
137,38
132,41
138,43
163,45
157,44
163,44
151,38
177,46
168,48
169,47
180,53
194,53
218,55
163,45
157,44
163,44
151,38
177,46
168,48
169,47
180,53
194,53
218,55
215,54
221,54
215,48
219,49
169,37
183,43
230,62
275,68
277,68
309,74
299,72
264,58
219,53
203,55
152,49
146,49
137,47
175,51
171,48
160,45
299,72
264,58
219,53
203,55
152,49
146,49
137,47
175,51
171,48
160,45
168,45
172,44
128,36
132,37
148,38
147,35
139,34
138,37
140,37
123,44
108,47
110,49
93,43
95,47
113,44
122,40
122,38
135,42
132,36
143,33
108,47
110,49
93,43
95,47
113,44
122,40
122,38
135,42
132,36
143,33
163,49
168,52
175,52
176,54
169,54
144,42
137,37
142,36
151,37
147,37
159,39
196,45
186,44
177,42
203,45
205,51
172,48
164,47
159,47
116,45
159,39
196,45
186,44
177,42
203,45
205,51
172,48
164,47
159,47
116,45
151,35
153,34
160,39
169,39
174,39
151,38
147,39
159,37
192,47
196,49
184,48
186,48
170,49
129,38
106,35
109,36
113,42
109,39
108,40
130,45
184,48
186,48
170,49
129,38
106,35
109,36
113,42
109,39
108,40
130,45
131,44
127,41
131,41
155,47
184,50
187,53
186,53
188,53
171,50
125,40
121,38
132,36
181,44
182,42
179,48
180,48
182,48
127,40
118,42
120,36
121,38
132,36
181,44
182,42
179,48
180,48
182,48
127,40
118,42
120,36
121,37
106,39
110,39
109,35
113,36
108,35
108,37
97,39
89,39
88,41
87,40
76,34
85,33
104,39
105,36
108,34
121,34
126,34
120,28
139,33
87,40
76,34
85,33
104,39
105,36
108,34
121,34
126,34
120,28
139,33
166,41
160,42
163,45
163,45
161,46
131,40
129,41
113,38
105,39
65,31
62,29
67,32
78,33
123,31
133,34
141,38
138,37
137,35
99,35
83,33
62,29
67,32
78,33
123,31
133,34
141,38
138,37
137,35
99,35
83,33
57,30
51,28
36,28
29,28
28,29
26,31
26,31
27,32
26,30
29,31
35,41
40,52
43,58
45,67
46,71
42,66
36,60
31,55
30,53
27,56
35,41
40,52
43,58
45,67
46,71
42,66
36,60
31,55
30,53
27,56
39,67
40,67
46,79
56,95
64,109
72,119
72,122
70,122
65,112
68,106
68,101
76,114
79,117
88,147
93,150
96,169
104,189
110,203
113,199
113,208
358,97
362,88
344,87
346,86
347,76
356,78
350,80
372,83
361,93
404,107
389,104
373,105
315,103
345,94
312,84
331,90
333,90
316,85
263,82
221,73
247,72
243,62
260,64
268,67
268,62
223,48
232,60
247,57
255,55
272,74
247,72
243,62
260,64
268,67
268,62
223,48
232,60
247,57
255,55
272,74
263,75
268,69
271,72
254,72
236,54
247,56
251,58
214,58
243,73
264,77
264,75
254,74
267,73
251,60
225,56
210,54
200,57
176,57
176,60
176,57
264,75
254,74
267,73
251,60
225,56
210,54
200,57
176,57
176,60
176,57
187,58
188,52
213,57
197,51
208,60
232,71
235,72
230,67
245,69
230,66
193,52
172,50
142,47
175,54
165,51
165,51
181,53
200,54
174,46
181,47
193,52
172,50
142,47
175,54
165,51
165,51
181,53
200,54
174,46
181,47
191,49
185,45
169,43
201,45
198,41
210,42
211,43
251,56
242,53
260,59
251,65
247,72
218,61
215,71
202,68
200,61
204,54
192,59
152,50
139,51
251,65
247,72
218,61
215,71
202,68
200,61
204,54
192,59
152,50
139,51
126,51
132,50
135,45
154,42
163,37
187,41
171,39
181,40
174,46
176,49
174,47
177,48
185,58
182,55
172,52
170,55
178,55
151,47
173,66
174,69
174,47
177,48
185,58
182,55
172,52
170,55
178,55
151,47
173,66
174,69
170,69
172,69
191,71
167,54
157,53
167,58
187,57
219,56
217,54
222,53
221,47
199,49
173,46
172,51
180,52
165,50
156,46
141,44
159,39
155,38
221,47
199,49
173,46
172,51
180,52
165,50
156,46
141,44
159,39
155,38
171,39
180,42
180,41
170,42
189,46
168,47
166,46
155,46
177,49
176,49
184,44
176,43
188,49
182,48
177,49
182,50
210,61
197,57
181,57
181,53
184,44
176,43
188,49
182,48
177,49
182,50
210,61
197,57
181,57
181,53
176,56
147,45
147,48
141,45
123,45
131,42
153,46
157,50
161,48
157,48
140,45
140,45
137,37
142,40
149,39
159,43
137,41
165,43
158,40
157,44
140,45
140,45
137,37
142,40
149,39
159,43
137,41
165,43
158,40
157,44
165,47
166,47
144,46
150,47
144,46
138,44
137,42
129,42
122,41
125,43
112,44
119,46
172,49
170,49
173,43
171,46
180,47
125,40
123,40
132,43
112,44
119,46
172,49
170,49
173,43
171,46
180,47
125,40
123,40
132,43
128,39
115,38
116,36
114,39
97,40
116,44
109,45
119,48
129,48
124,46
127,50
132,53
139,57
146,56
153,57
144,50
130,43
112,38
95,35
118,45
127,50
132,53
139,57
146,56
153,57
144,50
130,43
112,38
95,35
118,45
118,44
124,47
123,44
134,50
163,50
170,50
173,50
177,53
183,53
146,48
137,48
140,54
138,50
123,47
134,46
132,46
131,40
131,44
152,46
145,46
19,21
18,21
19,21
20,23
22,23
21,22
21,22
20,21
19,20
17,19
17,21
16,20
16,20
15,19
15,21
13,20
16,20
18,21
19,20
20,18
21,19
19,21
19,22
18,23
19,22
18,21
18,20
17,18
17,18
15,20
21,19
19,21
19,22
18,23
19,22
18,21
18,20
17,18
17,18
15,20
16,20
17,19
17,20
18,20
19,18
18,19
19,18
19,18
18,20
18,21
18,18
16,19
18,21
19,20
19,19
19,22
19,22
18,19
19,18
16,18
18,18
16,19
18,21
19,20
19,19
19,22
19,22
18,19
19,18
16,18
17,16
19,16
18,19
18,19
29,66
31,75
30,75
30,76
30,77
21,45
16,32
18,32
20,31
18,28
19,27
19,22
17,22
17,21
17,22
16,21
16,32
18,32
20,31
18,28
19,27
19,22
17,22
17,21
17,22
16,21
17,21
16,20
14,20
15,19
16,17
16,17
18,18
18,18
18,19
18,19
19,19
18,20
18,19
20,18
18,25
18,26
16,25
18,29
18,29
19,28
19,19
18,20
18,19
20,18
18,25
18,26
16,25
18,29
18,29
19,28
18,27
20,26
19,22
17,22
17,19
18,21
16,22
17,23
17,23
18,22
18,19
20,19
20,19
20,18
19,18
21,17
20,18
19,17
19,18
20,20
18,19
20,19
20,19
20,18
19,18
21,17
20,18
19,17
19,18
20,20
17,22
17,21
17,22
17,22
16,21
16,21
17,23
16,21
15,23
16,22
16,23
15,21
16,23
19,21
19,21
21,19
21,23
20,22
19,22
18,22
16,23
15,21
16,23
19,21
19,21
21,19
21,23
20,22
19,22
18,22
16,21
18,17
18,18
17,19
16,21
18,21
17,20
19,20
20,19
20,18
19,16
19,18
17,17
17,17
18,15
17,16
17,15
16,15
16,16
15,17
19,16
19,18
17,17
17,17
18,15
17,16
17,15
16,15
16,16
15,17
15,18
16,17
17,20
17,21
16,21
16,20
15,21
14,18
15,15
17,15
17,15
17,17
17,18
16,18
17,20
16,20
18,19
17,21
18,22
17,22
17,15
17,17
17,18
16,18
17,20
16,20
18,19
17,21
18,22
17,22
19,23
17,25
17,23
16,23
17,28
15,27
16,25
17,25
18,24
16,17
16,18
15,18
16,20
17,20
17,19
18,17
18,21
18,18
18,19
19,19
16,18
15,18
16,20
17,20
17,19
18,17
18,21
18,18
18,19
19,19
20,19
21,16
19,17
19,16
18,20
18,22
19,24
19,24
19,28
19,25
16,25
15,24
17,25
17,23
19,24
20,24
18,21
17,20
20,19
19,18
16,25
15,24
17,25
17,23
19,24
20,24
18,21
17,20
20,19
19,18
19,18
20,19
21,18
21,19
21,19
21,18
21,23
20,22
17,22
18,22
20,23
20,18
20,20
20,20
18,21
18,24
21,25
21,25
22,24
22,22
20,23
20,18
20,20
20,20
18,21
18,24
21,25
21,25
22,24
22,22
21,20
18,19
19,25
19,26
20,30
20,29
19,30
20,32
22,43
21,43
25,49
59,171
74,213
97,306
115,343
158,428
174,434
174,444
168,408
165,389
27,45
31,44
28,44
30,45
31,45
30,43
26,37
25,36
25,38
23,36
26,35
26,38
26,36
24,31
24,31
22,29
22,23
20,22
27,22
25,22
25,22
27,20
28,21
21,18
22,16
22,18
20,19
19,17
20,19
20,20
25,22
27,20
28,21
21,18
22,16
22,18
20,19
19,17
20,19
20,20
20,24
19,25
20,25
19,25
17,23
17,18
17,16
18,17
18,17
18,18
16,22
17,22
19,24
19,23
20,23
19,17
19,20
17,17
17,19
16,21
16,22
17,22
19,24
19,23
20,23
19,17
19,20
17,17
17,19
16,21
16,22
15,20
14,21
16,20
16,17
17,20
17,20
17,20
17,19
19,20
18,19
19,20
19,20
18,19
17,19
17,19
16,20
15,20
15,21
13,21
18,19
19,20
19,20
18,19
17,19
17,19
16,20
15,20
15,21
13,21
14,19
16,17
19,18
18,16
21,17
22,17
22,17
20,16
21,18
21,19
22,20
20,20
20,20
21,20
20,18
19,17
19,19
20,19
20,17
20,18
22,20
20,20
20,20
21,20
20,18
19,17
19,19
20,19
20,17
20,18
21,18
20,16
20,17
18,20
17,19
16,19
17,20
17,20
18,18
18,18
17,20
16,19
16,19
18,19
17,18
18,16
19,20
17,20
16,19
15,20
17,20
16,19
16,19
18,19
17,18
18,16
19,20
17,20
16,19
15,20
16,23
16,21
18,21
17,23
17,22
17,21
19,20
18,22
19,20
19,20
19,21
17,22
18,25
17,26
16,25
16,22
17,23
17,18
16,19
17,20
19,21
17,22
18,25
17,26
16,25
16,22
17,23
17,18
16,19
17,20
16,20
16,19
15,18
17,20
18,19
18,21
18,22
19,24
19,22
18,24
17,23
16,23
19,21
19,21
19,20
20,21
22,20
19,19
19,18
20,18
17,23
16,23
19,21
19,21
19,20
20,21
22,20
19,19
19,18
20,18
19,17
17,19
17,21
16,20
16,21
15,22
15,19
16,17
18,19
17,18
18,18
19,21
19,21
19,19
19,25
19,25
19,26
18,25
19,26
18,22
18,18
19,21
19,21
19,19
19,25
19,25
19,26
18,25
19,26
18,22
18,20
18,17
18,19
17,18
19,18
18,19
17,20
19,21
19,22
18,21
17,21
17,19
16,17
17,18
18,19
20,19
22,20
22,19
21,17
20,16
17,21
17,19
16,17
17,18
18,19
20,19
22,20
22,19
21,17
20,16
19,16
17,16
19,18
19,17
19,20
20,20
19,21
17,21
17,21
17,20
16,20
18,20
18,22
22,22
21,21
21,21
21,22
21,21
18,21
18,21
16,20
18,20
18,22
22,22
21,21
21,21
21,22
21,21
18,21
18,21
20,21
18,18
17,17
17,19
18,19
17,20
17,22
17,22
16,19
16,19
16,20
16,19
17,19
19,21
20,20
23,23
25,25
27,30
27,42
27,58
16,20
16,19
17,19
19,21
20,20
23,23
25,25
27,30
27,42
27,58
30,66
30,74
30,74
32,70
37,82
39,104
42,107
43,108
45,110
45,97
51,140
68,177
81,194
85,205
88,208
88,181
75,152
63,144
62,137
59,135
63,32
76,34
97,38
103,37
101,36
101,39
92,38
66,35
51,32
41,29
30,22
26,19
22,18
18,18
16,19
14,19
14,19
15,18
16,19
16,21
16,19
17,20
16,19
17,20
18,19
20,19
18,20
18,20
17,19
15,17
16,19
17,20
16,19
17,20
18,19
20,19
18,20
18,20
17,19
15,17
13,17
14,15
15,17
17,17
18,17
18,16
17,18
18,16
17,16
17,17
18,17
19,16
18,17
18,19
17,19
17,19
17,19
17,19
16,17
17,15
18,17
19,16
18,17
18,19
17,19
17,19
17,19
17,19
16,17
17,15
17,17
16,16
16,16
17,17
16,17
16,16
16,16
16,19
15,20
17,22
17,21
16,23
16,20
15,20
14,19
13,18
13,17
15,18
17,16
17,14
17,21
16,23
16,20
15,20
14,19
13,18
13,17
15,18
17,16
17,14
19,16
19,15
17,15
17,16
15,17
14,17
14,17
14,17
14,18
14,18
16,17
15,15
16,16
15,16
15,18
17,21
17,22
17,22
17,21
17,20
16,17
15,15
16,16
15,16
15,18
17,21
17,22
17,22
17,21
17,20
16,17
15,17
14,17
14,16
15,17
16,16
16,15
16,15
17,15
15,14
14,14
14,17
15,17
15,17
16,18
17,18
17,16
16,15
16,15
15,13
14,14
14,17
15,17
15,17
16,18
17,18
17,16
16,15
16,15
15,13
15,14
14,15
15,17
15,17
16,19
16,19
17,20
15,20
15,20
16,19
15,19
14,17
16,17
17,17
15,16
16,19
16,18
15,17
16,16
15,16
15,19
14,17
16,17
17,17
15,16
16,19
16,18
15,17
16,16
15,16
15,13
19,14
19,16
18,15
19,15
19,16
15,17
15,15
13,16
15,17
16,17
16,15
17,15
18,16
19,16
18,16
20,17
19,18
20,16
16,16
16,17
16,15
17,15
18,16
19,16
18,16
20,17
19,18
20,16
16,16
19,15
18,15
18,15
17,16
19,17
17,18
16,17
18,17
17,16
17,15
17,17
16,18
14,19
15,20
15,22
15,21
15,20
16,20
16,20
15,19
17,17
16,18
14,19
15,20
15,22
15,21
15,20
16,20
16,20
15,19
16,19
17,19
17,19
17,18
18,18
17,16
18,15
17,14
17,14
18,15
19,14
17,15
17,15
17,17
16,19
16,19
16,21
17,21
16,19
15,18
19,14
17,15
17,15
17,17
16,19
16,19
16,21
17,21
16,19
15,18
14,17
15,15
14,16
15,18
16,18
16,20
18,19
19,21
19,20
18,20
19,19
15,19
14,16
14,16
13,17
13,17
13,17
15,17
15,18
15,16
19,19
15,19
14,16
14,16
13,17
13,17
13,17
15,17
15,18
15,16
16,16
16,16
16,17
19,17
19,20
18,20
17,20
17,18
13,17
14,16
16,15
16,16
15,16
16,16
16,14
15,16
15,15
17,16
17,18
17,18
16,15
16,16
15,16
16,16
16,14
15,16
15,15
17,16
17,18
17,18
18,17
17,18
16,18
15,17
15,18
17,18
17,17
20,33
43,116
56,168
91,300
136,448
148,492
161,535
161,532
156,489
138,425
132,399
126,362
125,355
27,26
23,25
25,24
28,21
27,22
25,22
33,22
66,27
73,32
93,48
99,50
99,54
84,53
82,52
58,37
47,35
41,28
36,26
18,21
18,18
17,18
17,17
16,16
16,16
18,17
18,15
17,17
19,18
20,18
16,18
17,18
17,17
16,16
16,16
18,17
18,15
17,17
19,18
20,18
16,18
17,19
17,16
17,16
16,17
16,17
15,17
15,18
13,19
14,17
14,17
15,17
17,17
17,17
19,17
19,17
20,18
19,17
19,19
17,20
20,20
15,17
17,17
17,17
19,17
19,17
20,18
19,17
19,19
17,20
20,20
19,20
20,20
20,18
21,18
18,18
17,17
14,16
13,16
14,16
14,15
14,16
15,16
15,17
15,17
15,17
15,19
16,19
18,19
18,20
17,20
14,16
15,16
15,17
15,17
15,17
15,19
16,19
18,19
18,20
17,20
17,19
17,19
15,18
17,18
19,19
18,18
20,18
19,17
19,16
17,16
18,17
16,17
17,18
15,17
15,16
15,14
15,14
14,14
15,16
17,18
18,17
16,17
17,18
15,17
15,16
15,14
15,14
14,14
15,16
17,18
17,19
17,18
17,19
17,18
14,16
14,17
18,17
18,17
19,19
21,21
21,19
18,19
18,21
17,18
17,18
17,18
17,18
17,16
19,17
18,15
21,19
18,19
18,21
17,18
17,18
17,18
17,18
17,16
19,17
18,15
18,14
18,15
18,14
16,13
16,14
16,16
17,15
17,16
17,17
16,16
16,14
15,14
14,14
14,16
17,19
17,19
16,20
18,18
17,17
18,18
16,14
15,14
14,14
14,16
17,19
17,19
16,20
18,18
17,17
18,18
20,17
20,17
20,17
21,18
19,15
18,15
18,16
19,19
18,20
19,20
17,22
17,22
16,19
15,19
16,19
16,18
16,17
17,18
17,16
16,15
17,22
17,22
16,19
15,19
16,19
16,18
16,17
17,18
17,16
16,15
16,14
16,16
14,16
13,17
15,17
16,18
16,18
15,17
16,17
14,18
13,16
13,16
14,16
14,15
16,15
16,16
16,18
15,17
14,18
15,19
13,16
13,16
14,16
14,15
16,15
16,16
16,18
15,17
14,18
15,19
15,18
16,15
17,16
18,17
16,15
16,15
16,18
16,19
18,18
19,18
19,19
18,18
17,18
15,18
16,17
14,17
16,16
17,16
17,16
18,20
19,19
18,18
17,18
15,18
16,17
14,17
16,16
17,16
17,16
18,20
19,20
18,21
19,20
18,19
17,15
17,16
16,15
15,16
15,17
14,19
13,18
15,19
14,18
15,18
16,18
16,16
16,16
17,19
15,19
17,18
13,18
15,19
14,18
15,18
16,18
16,16
16,16
17,19
15,19
17,18
16,20
21,19
20,17
21,17
20,17
22,16
17,17
18,17
16,15
16,16
15,16
16,15
16,16
17,17
16,17
17,17
19,17
18,18
20,18
20,18
15,16
16,15
16,16
17,17
16,17
17,17
19,17
18,18
20,18
20,18
20,18
17,19
17,19
31,77
37,91
40,93
43,97
47,110
62,162
66,170
77,212
82,235
88,263
83,275
83,280
85,271
80,258
88,257
82,226
85,221
19,19
18,19
17,19
18,18
18,18
16,16
16,16
18,15
15,14
14,14
17,16
17,17
16,19
18,19
18,20
15,18
18,19
18,19
16,19
18,18
18,19
17,19
18,18
19,18
17,19
16,19
15,19
18,18
16,18
16,17
18,19
17,19
18,18
19,18
17,19
16,19
15,19
18,18
16,18
16,17
19,17
19,18
15,18
17,19
17,20
15,18
17,18
18,20
20,18
21,17
22,18
21,17
20,16
15,16
16,17
15,17
16,18
17,17
17,17
18,17
22,18
21,17
20,16
15,16
16,17
15,17
16,18
17,17
17,17
18,17
17,16
18,18
16,19
19,18
20,18
20,18
19,16
19,16
17,17
15,15
14,15
13,14
14,15
16,17
17,18
17,18
19,18
18,18
16,16
14,16
14,15
13,14
14,15
16,17
17,18
17,18
19,18
18,18
16,16
14,16
16,16
14,15
16,17
17,16
17,15
16,16
17,15
17,15
16,17
17,19
17,20
17,20
16,19
17,18
15,18
16,16
15,17
17,18
15,19
15,18
17,20
17,20
16,19
17,18
15,18
16,16
15,17
17,18
15,19
15,18
17,20
17,20
15,19
15,18
15,17
14,17
13,16
15,15
16,15
17,17
16,15
17,16
17,19
15,20
16,19
16,21
15,20
15,19
15,18
16,18
16,15
17,16
17,19
15,20
16,19
16,21
15,20
15,19
15,18
16,18
16,17
17,17
17,16
17,17
13,18
14,16
14,19
14,19
15,18
16,18
15,18
16,18
17,18
16,18
16,18
16,19
14,16
11,16
15,17
14,16
15,18
16,18
17,18
16,18
16,18
16,19
14,16
11,16
15,17
14,16
15,18
16,19
17,19
16,19
16,19
18,19
19,18
18,19
19,20
19,20
18,19
16,19
17,18
16,17
17,19
18,19
19,19
18,19
19,18
18,16
18,19
16,19
17,18
16,17
17,19
18,19
19,19
18,19
19,18
18,16
16,17
17,18
17,17
16,19
16,18
15,16
16,16
14,15
14,16
14,16
15,17
15,17
17,19
18,18
18,19
18,18
17,19
16,17
17,17
16,17
15,17
15,17
17,19
18,18
18,19
18,18
17,19
16,17
17,17
16,17
15,17
15,15
14,16
16,16
17,15
18,19
20,19
19,21
17,22
16,22
15,19
13,19
12,18
13,17
13,17
14,19
15,19
15,18
16,18
16,18
15,19
13,19
12,18
13,17
13,17
14,19
15,19
15,18
16,18
16,18
15,16
19,16
19,16
18,16
18,16
18,16
17,16
17,17
16,17
18,18
19,18
17,18
17,17
18,17
17,17
17,17
16,17
17,18
16,18
15,16
19,18
17,18
17,17
18,17
17,17
17,17
16,17
17,18
16,18
15,16
16,18
16,18
17,16
17,16
17,17
18,16
19,15
18,17
17,17
19,17
17,17
19,15
20,16
21,18
22,17
22,18
19,18
17,17
20,23
36,88
17,17
19,15
20,16
21,18
22,17
22,18
19,18
17,17
20,23
36,88
51,126
71,222
78,241
101,289
115,310
113,314
107,270
110,278
101,262
87,233
86,221
88,232
81,216
88,219
96,251
100,268
101,257
107,275
94,250
83,218
22,18
19,17
21,17
21,17
20,18
18,19
18,21
18,20
17,19
18,19
19,20
18,20
17,20
17,20
16,18
16,18
16,15
16,15
16,17
17,17
18,18
18,18
18,19
17,17
16,18
15,17
14,18
15,17
15,18
15,20
18,18
18,18
18,19
17,17
16,18
15,17
14,18
15,17
15,18
15,20
17,19
17,18
16,19
16,19
15,16
14,16
15,17
15,15
16,16
18,17
17,17
17,18
17,20
17,20
18,20
19,20
18,20
20,18
19,17
18,17
17,17
17,18
17,20
17,20
18,20
19,20
18,20
20,18
19,17
18,17
18,18
18,17
19,17
19,17
17,15
14,15
15,15
15,17
15,18
16,19
18,24
18,24
16,22
18,22
19,23
20,18
19,20
19,20
17,20
18,20
18,24
18,24
16,22
18,22
19,23
20,18
19,20
19,20
17,20
18,20
16,20
17,19
17,19
17,19
16,17
15,16
16,17
16,17
16,19
18,18
18,20
17,19
18,20
18,20
16,20
16,20
16,21
15,21
16,22
16,23
18,20
17,19
18,20
18,20
16,20
16,20
16,21
15,21
16,22
16,23
17,23
16,22
16,21
18,19
19,18
18,17
18,19
19,21
18,22
19,23
18,23
20,20
19,19
17,18
17,18
20,18
18,20
18,19
18,19
16,18
18,23
20,20
19,19
17,18
17,18
20,18
18,20
18,19
18,19
16,18
15,18
15,17
17,17
18,18
20,20
20,20
21,20
20,19
21,23
19,20
19,21
18,20
18,20
16,15
17,15
17,14
16,15
16,18
17,20
16,20
19,21
18,20
18,20
16,15
17,15
17,14
16,15
16,18
17,20
16,20
16,20
19,19
20,15
20,16
20,17
21,17
19,17
19,19
17,18
18,17
17,18
15,20
16,19
16,20
15,20
17,21
17,18
18,19
18,17
19,17
17,18
15,20
16,19
16,20
15,20
17,21
17,18
18,19
18,17
19,17
18,16
18,15
18,16
16,18
15,19
16,23
15,24
14,23
15,23
15,22
15,19
16,18
17,19
18,20
18,19
19,18
18,20
18,20
15,17
15,19
15,19
16,18
17,19
18,20
18,19
19,18
18,20
18,20
15,17
15,19
15,20
17,19
17,19
19,20
18,19
17,17
16,18
16,17
17,18
16,18
17,19
18,18
17,19
16,18
16,19
17,18
15,20
16,21
18,21
18,19
17,19
18,18
17,19
16,18
16,19
17,18
15,20
16,21
18,21
18,19
18,20
19,19
18,17
17,18
18,20
18,20
17,19
17,19
20,18
19,17
18,18
20,18
20,19
17,19
17,18
20,16
22,17
21,17
21,16
20,15
18,18
20,18
20,19
17,19
17,18
20,16
22,17
21,17
21,16
20,15
18,17
18,17
20,17
20,18
20,19
19,18
17,17
16,19
16,18
16,17
18,18
17,19
18,16
19,17
19,17
19,18
19,19
16,20
15,19
16,18
18,18
17,19
18,16
19,17
19,17
19,18
19,19
16,20
15,19
16,18
16,16
17,18
22,47
43,120
68,208
92,285
101,319
105,325
112,336
107,310
97,272
98,255
97,255
80,218
79,209
75,175
68,154
72,155
74,165
67,143
17,19
16,20
15,19
16,17
18,17
19,20
19,17
19,17
19,18
19,18
18,19
17,22
18,22
16,23
16,22
16,19
16,19
14,18
14,16
15,16
18,17
18,15
19,15
19,15
19,15
17,15
18,14
17,15
18,14
17,14
18,17
18,15
19,15
19,15
19,15
17,15
18,14
17,15
18,14
17,14
16,14
16,16
16,17
16,18
16,18
17,18
15,18
16,17
15,17
15,18
15,17
15,18
16,19
16,19
15,19
15,18
16,17
16,18
16,17
16,17
15,17
15,18
16,19
16,19
15,19
15,18
16,17
16,18
16,17
16,17
16,18
16,18
14,16
13,18
13,18
14,16
15,16
15,17
16,17
16,18
18,21
16,21
16,20
16,20
17,21
15,20
16,19
18,20
17,19
16,17
18,21
16,21
16,20
16,20
17,21
15,20
16,19
18,20
17,19
16,17
16,19
15,20
13,19
15,20
15,20
15,19
17,17
16,17
15,17
15,18
15,20
13,22
14,21
14,20
14,19
15,20
16,17
15,19
15,19
16,18
15,20
13,22
14,21
14,20
14,19
15,20
16,17
15,19
15,19
16,18
15,19
18,20
18,20
19,21
19,20
18,18
15,18
15,18
14,17
14,18
14,17
13,16
13,17
12,17
15,16
15,18
16,19
18,18
18,18
16,19
14,17
13,16
13,17
12,17
15,16
15,18
16,19
18,18
18,18
16,19
17,18
17,18
17,18
17,19
17,17
17,18
17,18
15,20
15,20
14,22
14,20
16,20
18,18
18,19
18,16
18,16
16,16
16,27
16,27
16,28
14,20
16,20
18,18
18,19
18,16
18,16
16,16
16,27
16,27
16,28
16,28
17,29
16,20
16,20
16,19
17,19
15,19
14,20
15,18
15,18
15,19
15,19
15,19
15,20
14,21
14,19
14,20
14,18
14,17
14,18
15,19
15,19
15,19
15,20
14,21
14,19
14,20
14,18
14,17
14,18
14,19
15,15
16,16
18,15
17,15
17,14
19,16
18,15
16,16
17,16
17,16
15,14
16,17
15,18
16,18
14,19
14,20
16,19
16,18
17,19
17,16
15,14
16,17
15,18
16,18
14,19
14,20
16,19
16,18
17,19
17,18
17,18
16,17
17,17
16,15
16,14
17,15
17,15
18,15
18,15
18,16
18,16
16,17
16,18
16,17
18,18
17,17
19,19
18,18
17,18
18,16
18,16
16,17
16,18
16,17
18,18
17,17
19,19
18,18
17,18
14,16
15,17
14,13
14,14
14,14
14,14
15,15
15,18
16,17
18,18
20,19
19,18
21,16
20,16
18,19
17,21
18,21
16,22
16,22
17,20
20,19
19,18
21,16
20,16
18,19
17,21
18,21
16,22
16,22
17,20
19,18
19,20
19,17
20,17
20,19
18,19
19,19
21,19
20,19
25,20
29,27
33,60
46,107
76,181
91,221
114,278
124,299
129,303
129,294
127,277
29,27
33,60
46,107
76,181
91,221
114,278
124,299
129,303
129,294
127,277
115,229
110,205
111,197
103,162
105,160
104,152
101,144
95,129
99,137
89,119
88,129
89,133
86,138
83,140
85,141
78,128
87,128
87,124
79,107
75,110
21,20
17,21
17,20
17,21
18,19
17,19
17,18
17,17
18,17
17,18
17,19
20,22
19,21
17,22
18,22
19,22
17,18
17,18
18,15
19,18
17,17
19,18
20,18
20,19
21,17
21,18
19,19
18,18
15,18
14,19
17,17
19,18
20,18
20,19
21,17
21,18
19,19
18,18
15,18
14,19
14,20
13,22
14,22
16,23
16,22
20,20
20,17
21,20
20,20
20,19
16,20
15,22
14,20
15,19
15,20
16,20
20,19
19,18
19,19
19,20
16,20
15,22
14,20
15,19
15,20
16,20
20,19
19,18
19,19
19,20
19,20
16,19
16,19
15,20
16,19
17,19
19,19
20,19
19,18
18,21
18,20
15,20
15,21
15,20
18,19
16,19
17,19
17,18
17,19
15,20
18,20
15,20
15,21
15,20
18,19
16,19
17,19
17,18
17,19
15,20
16,20
16,20
15,21
15,20
16,16
15,16
15,15
14,17
14,21
14,22
13,22
14,21
15,21
14,18
15,17
16,18
15,19
15,19
17,19
16,19
13,22
14,21
15,21
14,18
15,17
16,18
15,19
15,19
17,19
16,19
18,17
19,19
18,19
19,19
19,19
17,19
16,19
18,20
17,20
18,20
20,21
19,20
18,17
17,17
16,17
16,17
15,17
17,18
17,20
17,19
20,21
19,20
18,17
17,17
16,17
16,17
15,17
17,18
17,20
17,19
16,20
17,20
17,21
18,19
17,19
17,18
18,18
19,19
19,18
20,18
20,18
20,17
17,17
18,18
18,17
16,17
16,18
18,18
17,18
17,19
20,18
20,17
17,17
18,18
18,17
16,17
16,18
18,18
17,18
17,19
17,20
18,19
15,18
16,18
15,19
15,18
15,18
15,19
16,19
17,18
15,18
16,19
15,21
14,21
15,21
15,23
14,22
15,19
15,19
13,18
15,18
16,19
15,21
14,21
15,21
15,23
14,22
15,19
15,19
13,18
15,20
17,20
17,21
17,20
18,21
16,17
15,18
15,18
15,16
15,18
14,19
16,20
16,20
17,21
16,19
18,20
19,20
18,19
18,19
18,19
14,19
16,20
16,20
17,21
16,19
18,20
19,20
18,19
18,19
18,19
20,19
19,18
20,19
20,22
18,26
14,25
15,25
20,25
22,22
22,23
23,23
23,26
22,26
22,25
22,22
21,21
22,17
18,16
16,18
17,23
23,23
23,26
22,26
22,25
22,22
21,21
22,17
18,16
16,18
17,23
16,23
24,23
25,33
28,34
31,33
32,36
29,39
30,34
31,33
29,30
28,28
26,24
24,20
20,22
21,25
24,35
26,41
25,59
28,68
26,67
28,28
26,24
24,20
20,22
21,25
24,35
26,41
25,59
28,68
26,67
23,64
21,62
20,49
18,35
23,37
31,35
35,37
37,33
40,41
56,84
76,140
93,181
113,228
128,258
138,269
135,256
126,243
115,206
98,171
74,146
76,140
93,181
113,228
128,258
138,269
135,256
126,243
115,206
98,171
74,146
73,170
74,164
74,183
75,183
76,183
75,167
78,158
76,150
81,153
81,159
76,140
76,152
75,147
73,145
73,139
81,153
76,142
74,135
70,130
74,133
15,22
15,21
15,19
13,19
15,17
15,17
16,18
16,17
16,18
18,20
17,20
18,19
19,20
19,20
17,19
17,20
15,19
14,18
16,18
17,18
19,16
19,16
20,19
18,18
17,18
14,18
15,19
15,16
16,16
17,18
19,16
19,16
20,19
18,18
17,18
14,18
15,19
15,16
16,16
17,18
17,20
17,21
16,22
15,22
16,20
16,20
15,19
16,19
17,19
16,21
17,19
17,20
16,21
15,20
15,18
16,18
16,19
17,16
18,16
19,16
17,19
17,20
16,21
15,20
15,18
16,18
16,19
17,16
18,16
19,16
18,20
18,19
17,19
18,20
19,20
18,16
18,16
17,18
18,19
16,19
17,20
16,20
18,19
15,19
16,20
17,19
18,19
17,20
17,20
17,20
17,20
16,20
18,19
15,19
16,20
17,19
18,19
17,20
17,20
17,20
17,20
16,21
19,20
19,20
19,20
21,20
21,19
19,19
20,19
19,18
18,18
19,18
18,19
17,18
17,18
17,17
17,18
19,19
21,20
21,20
18,18
19,18
18,19
17,18
17,18
17,17
17,18
19,19
21,20
21,20
20,20
19,19
17,17
16,16
16,17
17,19
16,19
16,19
16,18
14,19
16,18
17,17
16,18
16,18
17,17
15,17
16,18
17,19
17,22
17,22
16,18
17,17
16,18
16,18
17,17
15,17
16,18
17,19
17,22
17,22
16,21
16,21
14,18
15,15
15,15
17,15
16,15
18,18
17,19
17,17
16,18
15,19
17,16
17,16
18,18
19,19
18,21
17,22
17,23
16,23
16,18
15,19
17,16
17,16
18,18
19,19
18,21
17,22
17,23
16,23
16,22
19,21
18,21
17,18
18,20
17,19
15,19
15,19
16,19
17,18
17,20
16,19
16,19
16,19
15,19
16,18
16,18
17,18
18,17
17,15
17,20
16,19
16,19
16,19
15,19
16,18
16,18
17,18
18,17
17,15
18,15
18,15
18,17
17,18
19,19
17,21
17,22
16,20
16,22
14,22
16,21
17,21
18,21
19,19
19,20
18,18
19,17
18,17
18,17
19,17
16,21
17,21
18,21
19,19
19,20
18,18
19,17
18,17
18,17
19,17
17,19
17,20
19,21
17,21
16,20
16,21
17,20
15,19
15,19
18,20
18,19
17,19
18,20
17,20
14,19
15,17
15,16
15,15
16,15
16,15
18,19
17,19
18,20
17,20
14,19
15,17
15,16
15,15
16,15
16,15
18,15
18,16
17,17
17,18
19,18
18,18
18,18
18,16
18,15
17,16
16,15
16,17
16,17
18,17
19,19
19,19
19,21
19,22
17,22
15,22
16,15
16,17
16,17
18,17
19,19
19,19
19,21
19,22
17,22
15,22
15,22
16,20
16,19
18,28
28,66
30,68
42,89
57,143
69,195
87,229
89,245
92,285
87,273
81,250
76,250
80,243
73,194
70,180
69,182
65,159
89,245
92,285
87,273
81,250
76,250
80,243
73,194
70,180
69,182
65,159
58,147
63,145
62,151
65,143
63,133
64,137
62,129
64,130
69,126
58,106
62,121
61,127
62,132
58,138
61,133
64,143
77,166
81,168
83,165
84,174
18,19
19,21
19,20
18,19
18,20
17,20
16,18
16,18
17,18
16,19
17,19
17,20
17,20
15,20
15,18
16,19
16,19
17,19
18,21
18,21
18,20
19,20
18,20
16,17
16,16
17,17
16,18
16,19
16,21
18,21
18,20
19,20
18,20
16,17
16,16
17,17
16,18
16,19
16,21
18,21
19,20
17,19
18,18
18,15
15,17
14,17
15,18
15,19
16,21
17,18
17,18
16,18
16,18
16,17
15,18
15,18
16,19
16,18
15,18
16,19
17,18
16,18
16,18
16,17
15,18
15,18
16,19
16,18
15,18
16,19
17,19
16,18
17,17
17,17
15,19
14,16
17,17
16,18
19,19
19,17
19,19
17,21
18,19
15,22
15,22
14,20
13,20
11,20
12,19
12,19
19,19
17,21
18,19
15,22
15,22
14,20
13,20
11,20
12,19
12,19
14,20
15,18
16,19
18,17
18,18
16,19
18,21
19,20
17,21
18,19
20,20
19,20
19,21
19,23
23,25
21,23
20,21
19,20
19,19
14,16
20,20
19,20
19,21
19,23
23,25
21,23
20,21
19,20
19,19
14,16
13,17
14,18
15,20
15,21
17,22
17,23
16,22
16,21
15,18
15,20
17,19
18,20
16,20
18,21
18,19
16,19
16,18
19,20
17,22
16,22
17,19
18,20
16,20
18,21
18,19
16,19
16,18
19,20
17,22
16,22
18,23
17,23
15,21
14,19
14,17
12,16
12,15
14,14
16,15
16,17
17,17
16,19
17,18
16,19
17,18
17,17
18,17
16,17
15,17
15,18
17,17
16,19
17,18
16,19
17,18
17,17
18,17
16,17
15,17
15,18
15,19
17,19
17,19
18,18
19,17
19,16
16,16
16,15
15,15
15,16
15,19
17,18
18,20
19,19
17,19
18,18
17,21
18,18
17,21
18,22
15,19
17,18
18,20
19,19
17,19
18,18
17,21
18,18
17,21
18,22
18,22
19,18
18,20
17,18
16,17
16,18
17,19
17,18
21,19
20,20
20,20
21,19
21,21
20,21
19,22
21,20
19,22
17,22
17,22
18,23
20,20
21,19
21,21
20,21
19,22
21,20
19,22
17,22
17,22
18,23
17,23
16,20
19,19
17,19
16,17
16,18
17,19
15,18
21,19
28,17
30,17
30,17
31,17
30,17
28,24
26,28
26,32
28,32
26,32
21,27
30,17
30,17
31,17
30,17
28,24
26,28
26,32
28,32
26,32
21,27
21,25
21,20
18,19
17,21
16,21
16,21
20,21
19,23
21,21
23,21
24,18
21,20
21,17
18,18
21,20
20,23
19,22
18,22
20,26
21,43
24,18
21,20
21,17
18,18
21,20
20,23
19,22
18,22
20,26
21,43
27,55
34,80
59,159
68,201
71,216
84,251
87,252
74,222
71,194
75,185
66,136
68,134
76,138
76,130
70,121
68,117
69,113
60,96
65,105
64,107
66,136
68,134
76,138
76,130
70,121
68,117
69,113
60,96
65,105
64,107
68,114
62,111
67,106
60,99
64,102
59,94
61,102
58,108
58,103
57,104
55,110
52,101
51,97
50,99
49,91
56,102
62,113
63,120
67,138
65,138
18,20
18,21
17,20
17,21
16,21
14,18
14,16
16,17
16,15
15,16
16,16
14,16
16,15
16,15
17,16
18,16
20,16
18,16
17,18
16,16
17,17
14,17
16,18
17,15
19,17
19,17
19,18
20,19
19,19
18,18
17,17
14,17
16,18
17,15
19,17
19,17
19,18
20,19
19,19
18,18
18,18
17,17
16,18
17,18
15,19
16,19
16,20
16,17
16,18
16,17
15,16
17,17
17,18
20,19
18,20
21,21
20,19
21,19
18,18
19,18
15,16
17,17
17,18
20,19
18,20
21,21
20,19
21,19
18,18
19,18
18,17
18,17
17,18
18,19
19,19
19,20
18,21
18,20
18,20
17,18
17,17
17,15
18,15
17,16
17,17
17,17
17,17
16,18
16,20
17,19
17,17
17,15
18,15
17,16
17,17
17,17
17,17
16,18
16,20
17,19
17,21
16,21
15,20
15,17
13,17
15,15
17,17
17,16
18,17
18,18
17,20
16,19
17,20
16,20
17,20
17,18
16,18
18,18
19,17
19,18
17,20
16,19
17,20
16,20
17,20
17,18
16,18
18,18
19,17
19,18
20,18
22,16
21,17
20,17
20,18
18,18
14,18
18,17
18,20
17,19
20,19
19,19
19,20
19,18
19,18
17,19
18,19
17,19
16,20
17,21
20,19
19,19
19,20
19,18
19,18
17,19
18,19
17,19
16,20
17,21
17,21
17,21
18,21
18,20
24,20
32,19
34,20
34,21
34,21
30,20
21,20
18,20
15,19
14,18
15,18
16,19
15,18
15,17
16,18
15,19
21,20
18,20
15,19
14,18
15,18
16,19
15,18
15,17
16,18
15,19
15,18
19,17
18,20
17,20
19,18
19,18
17,18
17,17
18,18
16,20
18,20
17,21
17,21
18,21
18,20
16,18
16,18
17,18
16,19
17,21
18,20
17,21
17,21
18,21
18,20
16,18
16,18
17,18
16,19
17,21
17,20
17,20
18,20
17,19
15,16
17,17
16,16
16,18
18,17
17,18
16,18
16,18
15,18
14,18
14,17
14,16
15,15
18,15
17,14
18,16
16,18
16,18
15,18
14,18
14,17
14,16
15,15
18,15
17,14
18,16
17,16
18,18
15,17
15,17
16,17
19,18
17,16
18,16
18,16
18,16
17,17
17,18
17,18
16,18
15,20
15,17
15,16
14,17
16,15
15,14
17,17
17,18
17,18
16,18
15,20
15,17
15,16
14,17
16,15
15,14
16,17
15,18
16,18
15,19
16,18
15,17
16,15
16,17
17,17
16,17
17,17
17,19
16,16
17,16
17,16
17,15
18,13
19,14
19,15
18,16
17,17
17,19
16,16
17,16
17,16
17,15
18,13
19,14
19,15
18,16
19,19
19,19
16,19
17,19
19,21
19,23
18,24
19,25
18,24
28,36
48,115
56,124
63,132
64,135
68,144
73,112
96,148
99,148
103,161
106,166
48,115
56,124
63,132
64,135
68,144
73,112
96,148
99,148
103,161
106,166
106,161
87,131
80,129
90,135
90,129
83,132
84,126
93,132
83,114
85,118
86,125
85,128
93,179
93,182
91,189
91,201
94,201
83,163
86,161
84,146
25,26
23,25
21,25
21,26
21,25
22,24
25,24
25,25
28,24
29,22
28,22
27,19
29,18
25,18
24,20
24,20
22,20
17,20
19,20
20,19
20,18
20,19
22,18
21,20
21,21
20,21
21,19
24,20
26,19
26,21
20,18
20,19
22,18
21,20
21,21
20,21
21,19
24,20
26,19
26,21
28,20
27,21
25,24
22,23
20,20
22,21
22,22
21,20
21,20
22,20
19,21
22,19
23,20
22,20
22,20
21,18
20,19
18,17
18,18
19,18
19,21
22,19
23,20
22,20
22,20
21,18
20,19
18,17
18,18
19,18
20,19
20,19
20,19
18,16
18,17
17,18
15,18
16,19
18,20
16,19
19,18
20,18
20,17
19,19
20,19
17,20
16,20
16,19
18,19
18,19
19,18
20,18
20,17
19,19
20,19
17,20
16,20
16,19
18,19
18,19
18,17
20,19
21,18
20,20
20,18
20,18
17,17
17,18
16,17
15,18
16,18
17,17
17,18
18,18
20,17
20,19
21,20
21,19
18,19
17,20
16,18
17,17
17,18
18,18
20,17
20,19
21,20
21,19
18,19
17,20
17,19
16,18
15,18
18,20
17,18
18,17
17,16
17,17
15,15
14,16
15,18
15,19
16,20
17,21
19,21
18,20
18,22
18,21
18,21
18,19
15,18
15,19
16,20
17,21
19,21
18,20
18,22
18,21
18,21
18,19
17,20
16,19
14,17
13,18
12,17
13,17
13,18
15,18
17,19
17,20
19,19
19,18
17,19
16,17
17,16
15,19
15,20
16,21
15,21
17,22
19,19
19,18
17,19
16,17
17,16
15,19
15,20
16,21
15,21
17,22
17,21
17,22
17,21
18,21
15,19
16,19
17,18
18,19
18,20
17,20
16,19
17,18
16,20
15,19
16,20
16,20
16,20
17,18
18,17
18,18
16,19
17,18
16,20
15,19
16,20
16,20
16,20
17,18
18,17
18,18
18,17
18,18
18,17
17,16
18,18
18,18
18,16
17,15
18,18
19,16
20,17
19,19
20,21
19,20
18,21
16,21
17,21
16,20
15,20
17,20
20,17
19,19
20,21
19,20
18,21
16,21
17,21
16,20
15,20
17,20
16,20
15,19
15,17
15,18
13,17
13,19
14,18
16,20
17,18
21,17
22,13
21,14
19,14
18,15
17,15
16,16
17,17
18,17
20,17
18,19
22,13
21,14
19,14
18,15
17,15
16,16
17,17
18,17
20,17
18,19
18,18
21,18
21,17
20,17
20,16
20,16
17,14
16,14
19,14
19,14
20,16
20,16
20,17
16,16
15,16
16,17
20,30
29,91
46,146
58,167
20,16
20,16
20,17
16,16
15,16
16,17
20,30
29,91
46,146
58,167
80,219
91,247
95,246
99,238
102,241
96,211
99,235
95,231
91,219
84,205
77,212
71,153
74,147
78,139
75,136
78,114
69,111
72,135
70,156
71,158
77,212
71,153
74,147
78,139
75,136
78,114
69,111
72,135
70,156
71,158
76,157
78,160
71,136
72,123
77,125
66,122
77,136
80,137
77,129
74,129
87,170
82,171
86,176
90,199
88,202
78,176
73,164
68,165
58,140
63,136
18,25
21,25
21,24
20,20
22,20
21,18
20,20
20,21
21,21
19,20
19,22
18,19
20,21
19,21
21,24
22,24
22,24
20,24
19,24
19,24
16,25
19,24
20,22
20,22
20,21
20,18
18,18
17,19
19,20
17,22
16,25
19,24
20,22
20,22
20,21
20,18
18,18
17,19
19,20
17,22
17,22
17,21
18,23
16,23
16,24
16,25
16,25
16,22
18,20
19,19
19,19
20,19
19,19
18,21
18,21
21,22
21,22
22,23
23,23
22,25
19,19
20,19
19,19
18,21
18,21
21,22
21,22
22,23
23,23
22,25
19,24
20,23
20,25
19,24
19,22
20,24
18,24
18,21
17,21
17,21
16,19
15,19
16,23
17,23
19,25
19,26
21,26
21,23
20,22
19,20
16,19
15,19
16,23
17,23
19,25
19,26
21,26
21,23
20,22
19,20
19,18
18,21
18,23
18,25
20,23
19,25
20,23
19,27
20,26
19,27
19,27
18,27
17,22
16,22
15,22
14,20
15,21
15,22
15,21
15,21
19,27
18,27
17,22
16,22
15,22
14,20
15,21
15,22
15,21
15,21
17,20
17,18
16,21
16,20
17,21
17,23
19,25
21,25
21,25
21,25
20,24
19,23
19,22
18,22
17,21
16,21
16,19
15,21
16,22
18,24
20,24
19,23
19,22
18,22
17,21
16,21
16,19
15,21
16,22
18,24
19,25
21,26
22,23
22,22
21,19
22,20
21,21
20,22
19,21
20,22
17,21
17,20
18,21
18,24
21,24
21,26
21,24
23,26
24,23
21,23
17,21
17,20
18,21
18,24
21,24
21,26
21,24
23,26
24,23
21,23
21,21
22,23
21,24
19,23
20,22
20,21
19,20
17,16
19,15
19,17
19,18
19,21
21,23
19,23
18,22
18,22
18,21
19,21
19,22
18,22
19,18
19,21
21,23
19,23
18,22
18,22
18,21
19,21
19,22
18,22
19,24
18,24
16,22
15,21
15,21
15,19
16,19
15,20
17,21
17,21
17,24
16,22
18,22
17,23
18,28
18,25
18,25
19,27
20,25
18,21
17,24
16,22
18,22
17,23
18,28
18,25
18,25
19,27
20,25
18,21
24,22
24,24
22,22
22,24
22,24
18,21
18,23
18,24
17,23
17,22
18,25
17,22
17,20
18,20
19,22
19,21
19,19
19,20
20,20
20,19
18,25
17,22
17,20
18,20
19,22
19,21
19,19
19,20
20,20
20,19
19,19
22,23
21,23
22,22
22,23
24,27
21,25
22,26
21,27
20,26
21,22
20,22
20,24
20,24
19,24
17,22
17,23
17,20
18,23
19,24
21,22
20,22
20,24
20,24
19,24
17,22
17,23
17,20
18,23
19,24
19,26
19,25
19,27
19,27
19,27
20,26
19,27
19,24
18,22
16,22
17,24
17,23
18,25
18,24
19,24
17,23
18,25
18,24
18,23
18,23
17,24
17,23
18,25
18,24
19,24
17,23
18,25
18,24
18,23
18,23
20,26
20,25
18,24
20,24
21,24
21,19
20,18
22,17
21,21
20,22
19,21
19,21
18,24
17,23
17,23
19,23
18,23
18,23
19,21
21,22
25,129
25,136
25,118
24,125
25,132
22,140
22,132
20,127
23,123
21,118
23,106
22,120
25,125
24,126
24,107
23,133
24,159
22,158
25,172
26,174
27,161
29,134
27,129
26,120
27,119
29,119
26,124
26,135
25,125
22,126
27,161
29,134
27,129
26,120
27,119
29,119
26,124
26,135
25,125
22,126
17,113
22,97
22,86
21,99
22,96
26,98
21,88
25,98
25,96
25,108
20,134
22,139
21,131
22,127
24,118
26,91
27,115
26,123
23,122
25,122
20,134
22,139
21,131
22,127
24,118
26,91
27,115
26,123
23,122
25,122
23,118
21,93
20,79
24,155
21,164
23,166
24,163
27,164
25,96
27,118
24,117
23,119
22,117
22,122
19,92
25,123
27,136
25,148
25,141
26,137
24,117
23,119
22,117
22,122
19,92
25,123
27,136
25,148
25,141
26,137
23,129
23,130
25,129
25,134
26,137
25,134
25,132
23,122
30,132
27,128
27,120
27,114
28,145
23,139
24,143
22,140
24,135
23,111
20,129
19,122
27,120
27,114
28,145
23,139
24,143
22,140
24,135
23,111
20,129
19,122
17,123
17,135
18,134
20,134
22,163
22,164
21,154
25,162
22,159
22,130
24,164
24,164
20,155
21,140
21,164
27,186
27,200
27,201
27,203
27,203
24,164
24,164
20,155
21,140
21,164
27,186
27,200
27,201
27,203
27,203
21,150
31,159
32,153
32,156
33,136
34,136
25,122
26,123
27,144
26,140
24,143
22,123
21,146
23,128
23,127
23,137
24,143
24,122
22,132
21,144
24,143
22,123
21,146
23,128
23,127
23,137
24,143
24,122
22,132
21,144
23,161
23,169
22,172
22,158
22,160
17,143
19,141
18,135
21,135
20,123
22,118
23,115
24,147
22,143
25,138
25,146
23,134
23,115
22,117
19,119
22,118
23,115
24,147
22,143
25,138
25,146
23,134
23,115
22,117
19,119
19,106
20,131
22,132
23,151
23,152
23,142
21,144
21,147
20,136
19,151
19,153
20,134
17,131
21,137
26,142
28,166
27,165
27,150
25,159
23,146
19,153
20,134
17,131
21,137
26,142
28,166
27,165
27,150
25,159
23,146
23,127
23,139
24,139
23,119
21,130
18,138
19,122
23,146
24,149
26,132
27,118
28,136
23,120
23,142
24,153
26,155
25,147
26,157
26,128
23,133
27,118
28,136
23,120
23,142
24,153
26,155
25,147
26,157
26,128
23,133
22,141
21,142
21,136
21,135
20,116
19,135
19,131
18,119
18,140
21,143
20,114
21,126
21,122
21,99
21,114
21,129
21,121
25,139
30,150
28,138
20,114
21,126
21,122
21,99
21,114
21,129
21,121
25,139
30,150
28,138
27,140
26,140
21,125
19,126
18,131
20,144
23,145
27,151
23,156
26,155
25,120
23,129
19,122
22,126
21,140
22,144
27,143
48,155
56,142
66,151
25,120
23,129
19,122
22,126
21,140
22,144
27,143
48,155
56,142
66,151
72,161
92,185
91,182
96,208
96,220
96,231
78,232
72,240
63,214
59,187
55,174
57,153
63,141
63,147
58,144
55,127
51,112
45,104
43,91
45,104
32,142
33,169
34,155
33,158
46,149
95,151
100,129
103,122
103,124
98,125
52,105
41,129
35,136
33,136
29,150
23,152
23,147
22,147
21,143
23,129
25,128
25,104
25,137
25,172
24,165
23,174
25,172
25,143
24,172
25,182
25,128
25,104
25,137
25,172
24,165
23,174
25,172
25,143
24,172
25,182
28,185
24,189
23,193
24,136
22,129
20,119
21,117
23,138
23,138
27,124
24,122
24,126
25,141
28,152
28,159
30,159
31,165
31,132
32,135
29,151
24,122
24,126
25,141
28,152
28,159
30,159
31,165
31,132
32,135
29,151
28,148
27,135
25,143
20,138
23,136
24,133
24,145
26,153
27,144
28,138
28,170
28,168
24,169
24,172
27,179
27,155
29,162
29,154
33,177
31,156
28,170
28,168
24,169
24,172
27,179
27,155
29,162
29,154
33,177
31,156
30,157
29,174
30,166
26,137
22,161
22,172
22,148
22,150
22,153
27,137
28,152
28,149
29,150
29,171
26,167
27,138
31,166
31,175
34,163
33,167
28,152
28,149
29,150
29,171
26,167
27,138
31,166
31,175
34,163
33,167
31,165
25,136
24,140
20,128
19,118
21,162
22,171
22,157
22,164
23,167
23,123
25,149
25,149
26,162
26,175
26,176
24,154
24,174
23,162
24,160
23,123
25,149
25,149
26,162
26,175
26,176
24,154
24,174
23,162
24,160
24,159
23,159
23,143
24,133
25,142
26,148
27,155
28,147
27,167
25,161
24,181
21,164
23,160
24,165
25,159
26,149
25,151
24,160
23,149
24,143
24,181
21,164
23,160
24,165
25,159
26,149
25,151
24,160
23,149
24,143
23,148
24,150
23,141
25,128
25,135
25,111
29,115
27,131
26,125
24,118
23,131
21,121
21,116
20,125
22,120
24,107
21,126
22,134
24,132
24,143
23,131
21,121
21,116
20,125
22,120
24,107
21,126
22,134
24,132
24,143
25,151
24,144
26,150
24,149
29,182
26,177
28,171
26,151
28,174
22,132
23,148
24,157
25,159
23,133
25,156
24,159
27,161
32,179
32,187
31,165
23,148
24,157
25,159
23,133
25,156
24,159
27,161
32,179
32,187
31,165
32,164
28,165
21,172
25,161
25,162
28,154
26,143
27,123
23,125
24,125
19,113
19,144
20,131
19,130
20,165
22,168
22,157
22,178
22,177
24,156
19,113
19,144
20,131
19,130
20,165
22,168
22,157
22,178
22,177
24,156
24,149
24,138
22,122
23,131
21,173
19,173
21,178
25,171
24,165
23,112
25,111
24,115
21,133
20,132
22,143
22,173
23,168
24,175
24,173
23,170
25,111
24,115
21,133
20,132
22,143
22,173
23,168
24,175
24,173
23,170
22,144
22,138
22,122
21,134
21,129
23,119
22,133
23,120
28,121
30,116
29,143
36,131
37,144
39,135
47,136
49,109
50,134
56,134
64,181
61,192
29,143
36,131
37,144
39,135
47,136
49,109
50,134
56,134
64,181
61,192
61,207
62,200
61,191
53,147
55,150
61,152
59,142
55,143
56,147
53,140
51,141
51,155
49,152
53,159
60,196
57,187
69,200
69,220
66,214
63,187
25,103
24,91
21,124
24,155
23,145
24,150
26,157
29,146
27,110
29,133
29,136
28,146
26,174
26,173
27,153
24,153
24,172
25,136
25,142
27,154
28,150
28,109
31,104
31,142
29,158
29,165
29,169
26,176
27,143
24,122
28,150
28,109
31,104
31,142
29,158
29,165
29,169
26,176
27,143
24,122
27,137
30,155
31,147
30,152
31,144
29,121
26,106
24,138
24,137
25,168
25,169
24,163
25,146
24,145
20,134
20,129
21,125
19,124
18,117
22,142
25,169
24,163
25,146
24,145
20,134
20,129
21,125
19,124
18,117
22,142
23,165
26,170
27,160
29,160
27,122
27,132
23,124
23,160
23,165
27,165
30,135
30,146
29,132
32,130
29,134
27,134
26,133
28,127
25,146
24,139
30,135
30,146
29,132
32,130
29,134
27,134
26,133
28,127
25,146
24,139
26,143
30,148
28,132
32,107
32,122
30,128
27,111
28,127
24,131
23,114
22,133
25,132
25,118
30,123
31,136
31,107
31,119
29,141
23,139
22,125
22,133
25,132
25,118
30,123
31,136
31,107
31,119
29,141
23,139
22,125
24,137
22,130
21,121
21,122
22,136
22,120
28,158
32,158
32,163
33,153
34,168
30,131
26,152
26,143
25,156
26,145
23,173
24,145
25,154
27,140
34,168
30,131
26,152
26,143
25,156
26,145
23,173
24,145
25,154
27,140
25,168
25,144
29,172
28,166
28,169
29,145
31,163
27,133
26,131
24,150
24,164
23,175
21,176
24,177
25,165
23,156
24,121
25,128
26,157
28,166
24,164
23,175
21,176
24,177
25,165
23,156
24,121
25,128
26,157
28,166
30,162
31,172
30,162
29,170
27,159
24,162
25,152
28,156
29,134
27,139
27,126
25,145
23,142
21,124
21,128
25,129
27,108
31,134
31,136
30,133
27,126
25,145
23,142
21,124
21,128
25,129
27,108
31,134
31,136
30,133
30,155
30,151
26,130
28,152
28,147
27,122
25,146
27,156
27,146
30,153
30,159
29,138
28,157
26,144
23,130
21,154
23,158
25,125
26,120
27,149
30,159
29,138
28,157
26,144
23,130
21,154
23,158
25,125
26,120
27,149
29,128
26,121
23,121
24,139
23,120
23,133
23,134
24,145
24,131
24,125
23,123
22,128
23,135
23,145
25,142
25,121
26,134
25,144
22,136
20,136
23,123
22,128
23,135
23,145
25,142
25,121
26,134
25,144
22,136
20,136
21,140
21,129
20,109
22,129
22,129
25,148
26,141
27,137
29,137
29,168
25,155
23,159
23,158
19,137
25,117
27,127
28,131
29,130
34,131
36,114
25,155
23,159
23,158
19,137
25,117
27,127
28,131
29,130
34,131
36,114
43,110
51,123
52,155
55,164
56,172
68,184
70,177
76,163
79,168
80,159
71,136
67,127
67,122
64,118
66,138
60,142
60,145
52,138
49,125
43,104
71,136
67,127
67,122
64,118
66,138
60,142
60,145
52,138
49,125
43,104
45,102
50,102
53,100
50,100
57,109
58,111
54,117
55,162
60,176
54,173
54,177
55,181
53,157
47,144
51,139
48,125
46,111
46,92
49,115
44,124
29,96
29,121
29,154
26,155
26,158
24,156
25,136
23,97
25,108
24,117
24,144
24,142
27,144
26,136
29,131
28,100
26,87
24,89
23,86
20,76
19,79
20,75
21,76
24,105
22,118
24,125
22,124
23,117
22,105
27,143
19,79
20,75
21,76
24,105
22,118
24,125
22,124
23,117
22,105
27,143
26,137
27,137
28,138
26,138
26,89
27,107
26,111
27,124
27,116
26,113
24,126
23,127
21,144
22,143
20,144
23,130
24,140
24,113
24,132
24,145
24,126
23,127
21,144
22,143
20,144
23,130
24,140
24,113
24,132
24,145
25,134
24,122
26,123
27,158
29,151
31,151
31,154
30,160
37,137
36,144
33,145
33,148
33,143
24,113
24,111
24,116
24,130
27,140
28,139
29,144
33,145
33,148
33,143
24,113
24,111
24,116
24,130
27,140
28,139
29,144
30,146
30,124
28,105
25,112
24,100
23,95
23,122
24,125
23,132
24,131
23,125
24,110
22,118
22,101
25,105
25,108
24,104
27,122
27,124
26,119
23,125
24,110
22,118
22,101
25,105
25,108
24,104
27,122
27,124
26,119
30,129
29,125
29,110
29,128
28,134
24,128
25,134
24,123
22,103
20,115
18,134
16,127
17,138
20,146
21,124
23,95
25,134
27,136
25,135
25,136
18,134
16,127
17,138
20,146
21,124
23,95
25,134
27,136
25,135
25,136
25,137
22,111
21,118
20,115
21,119
19,123
23,118
23,95
25,117
24,128
28,126
26,121
26,116
25,85
26,103
27,113
25,113
26,112
26,119
29,83
28,126
26,121
26,116
25,85
26,103
27,113
25,113
26,112
26,119
29,83
28,79
34,95
33,120
34,116
31,116
30,118
24,126
27,113
27,115
27,114
27,115
26,106
23,109
26,121
25,124
27,120
28,108
30,124
28,111
27,117
27,115
26,106
23,109
26,121
25,124
27,120
28,108
30,124
28,111
27,117
25,108
27,117
25,89
24,114
24,106
26,111
25,100
26,121
31,142
30,145
28,165
26,167
27,163
21,122
22,123
23,89
31,133
35,120
36,123
36,118
28,165
26,167
27,163
21,122
22,123
23,89
31,133
35,120
36,123
36,118
35,134
28,96
25,102
23,105
24,112
24,111
23,104
20,103
23,105
21,112
23,126
24,128
24,129
23,140
28,141
29,119
32,137
32,135
32,117
30,119
23,126
24,128
24,129
23,140
28,141
29,119
32,137
32,135
32,117
30,119
27,119
24,95
28,149
29,159
30,154
30,155
32,166
28,134
30,142
31,137
31,132
30,125
32,138
28,121
25,125
26,133
28,131
28,102
32,122
33,117
31,132
30,125
32,138
28,121
25,125
26,133
28,131
28,102
32,122
33,117
38,113
38,107
39,106
49,130
53,162
54,215
64,232
69,244
76,240
82,223
86,189
79,176
80,169
71,146
68,148
70,156
72,166
77,190
78,192
79,189
86,189
79,176
80,169
71,146
68,148
70,156
72,166
77,190
78,192
79,189
72,174
74,159
68,128
65,124
62,128
63,165
58,168
54,163
51,162
47,154
43,124
43,122
42,124
41,127
40,137
40,137
42,129
39,122
37,121
41,121
29,131
27,118
26,97
26,110
24,117
23,111
24,124
28,121
26,113
29,91
31,121
31,124
28,127
31,142
29,144
27,119
26,98
27,124
24,111
24,112
25,117
26,116
26,83
26,69
25,72
25,68
25,70
24,80
24,80
27,67
25,117
26,116
26,83
26,69
25,72
25,68
25,70
24,80
24,80
27,67
27,70
30,69
29,57
28,52
26,75
27,79
24,78
24,78
31,87
32,69
30,55
30,60
30,58
24,43
23,45
28,44
29,50
30,52
30,51
31,52
30,55
30,60
30,58
24,43
23,45
28,44
29,50
30,52
30,51
31,52
31,64
28,76
30,83
30,84
29,82
26,70
27,49
24,42
30,59
29,63
28,63
28,67
27,74
27,65
28,68
32,79
32,75
31,75
28,71
29,74
28,63
28,67
27,74
27,65
28,68
32,79
32,75
31,75
28,71
29,74
24,72
26,93
30,100
31,102
32,96
33,89
31,70
32,60
31,62
31,63
32,65
32,60
31,61
29,66
29,66
28,67
29,79
29,80
32,75
29,114
32,65
32,60
31,61
29,66
29,66
28,67
29,79
29,80
32,75
29,114
34,117
36,114
36,109
35,113
37,99
35,109
35,109
34,107
35,103
34,85
32,67
31,73
34,78
37,78
35,78
33,77
32,79
26,77
24,91
25,104
32,67
31,73
34,78
37,78
35,78
33,77
32,79
26,77
24,91
25,104
27,107
28,96
28,105
24,106
24,89
24,87
23,87
25,72
26,64
26,70
24,67
28,71
26,72
26,69
29,62
31,65
29,66
31,79
31,72
30,74
24,67
28,71
26,72
26,69
29,62
31,65
29,66
31,79
31,72
30,74
31,71
30,83
29,79
28,76
30,78
27,86
30,119
28,117
28,117
26,115
30,114
26,68
26,72
28,71
27,70
28,69
28,67
28,55
28,67
29,78
30,114
26,68
26,72
28,71
27,70
28,69
28,67
28,55
28,67
29,78
26,71
32,81
32,92
31,94
29,101
31,102
25,90
24,85
27,76
26,66
24,77
27,90
27,86
25,91
25,89
25,97
22,87
21,88
25,97
27,91
24,77
27,90
27,86
25,91
25,89
25,97
22,87
21,88
25,97
27,91
28,73
28,84
29,94
27,79
26,77
27,78
28,69
26,62
26,89
27,93
27,96
27,116
27,116
26,98
26,110
20,115
26,98
29,96
29,92
28,79
27,96
27,116
27,116
26,98
26,110
20,115
26,98
29,96
29,92
28,79
29,65
24,67
20,65
21,73
21,71
23,69
22,61
28,70
27,64
27,62
26,66
27,71
21,61
22,64
25,73
26,76
27,85
33,90
36,93
36,95
26,66
27,71
21,61
22,64
25,73
26,76
27,85
33,90
36,93
36,95
42,102
42,99
47,99
46,114
47,107
45,105
50,107
45,107
48,105
52,125
56,125
70,133
73,140
77,141
82,135
81,134
68,119
68,122
69,132
70,133
56,125
70,133
73,140
77,141
82,135
81,134
68,119
68,122
69,132
70,133
70,134
72,139
75,142
75,123
68,112
68,115
68,118
61,101
59,103
56,104
56,105
59,102
64,117
58,115
58,117
59,114
54,108
47,94
48,98
49,98
30,74
25,77
29,79
29,77
32,82
31,74
31,56
29,70
30,71
27,73
27,85
28,84
27,94
28,95
28,88
29,77
28,79
26,49
27,55
27,78
26,79
27,82
28,84
26,86
28,74
28,73
29,68
30,103
30,98
29,99
26,79
27,82
28,84
26,86
28,74
28,73
29,68
30,103
30,98
29,99
30,101
28,117
26,88
26,86
25,76
26,85
25,68
26,66
27,65
26,83
25,73
29,74
30,81
30,92
30,77
29,77
28,70
27,87
28,76
27,78
25,73
29,74
30,81
30,92
30,77
29,77
28,70
27,87
28,76
27,78
28,75
28,84
32,60
33,63
32,63
30,72
28,76
22,74
22,75
23,79
23,73
23,54
22,59
24,57
26,63
27,65
28,67
28,72
25,68
27,61
23,73
23,54
22,59
24,57
26,63
27,65
28,67
28,72
25,68
27,61
25,58
24,62
26,53
27,50
26,49
31,73
32,72
31,71
29,72
28,79
24,78
31,77
30,77
32,84
29,75
30,62
24,60
25,63
26,60
28,55
24,78
31,77
30,77
32,84
29,75
30,62
24,60
25,63
26,60
28,55
27,62
27,69
26,68
26,62
27,65
25,59
31,68
32,70
32,73
32,81
37,87
31,79
31,78
30,81
30,76
24,72
24,76
24,81
27,77
27,72
37,87
31,79
31,78
30,81
30,76
24,72
24,76
24,81
27,77
27,72
29,67
32,74
31,79
28,79
27,82
27,88
25,74
26,59
26,78
27,83
26,76
24,80
23,81
26,88
28,80
27,82
31,81
32,83
30,83
28,84
26,76
24,80
23,81
26,88
28,80
27,82
31,81
32,83
30,83
28,84
28,82
26,83
27,80
26,60
29,66
29,66
27,62
28,84
30,84
32,87
32,90
35,90
34,73
32,68
31,68
32,67
29,66
30,73
32,84
28,80
32,90
35,90
34,73
32,68
31,68
32,67
29,66
30,73
32,84
28,80
26,79
30,84
31,76
29,75
28,72
29,73
25,69
29,80
30,64
30,68
29,66
32,67
28,54
26,55
28,58
29,69
25,66
24,65
25,64
29,70
29,66
32,67
28,54
26,55
28,58
29,69
25,66
24,65
25,64
29,70
29,61
31,60
33,62
31,67
26,62
29,63
34,65
32,70
33,66
33,56
32,70
29,76
29,72
30,71
31,75
29,59
24,65
26,70
24,71
25,70
32,70
29,76
29,72
30,71
31,75
29,59
24,65
26,70
24,71
25,70
28,68
28,64
29,64
28,64
27,71
24,74
24,65
18,61
23,73
23,70
24,73
28,80
33,79
38,78
41,89
46,94
50,98
52,102
52,98
57,93
24,73
28,80
33,79
38,78
41,89
46,94
50,98
52,102
52,98
57,93
60,105
56,96
57,114
60,128
57,127
52,121
57,131
60,131
57,124
57,121
60,117
56,112
49,99
47,91
50,92
48,92
56,96
58,93
56,91
53,88
60,117
56,112
49,99
47,91
50,92
48,92
56,96
58,93
56,91
53,88
53,95
47,104
47,105
45,105
41,103
41,100
39,88
36,81
38,89
43,96
44,99
41,90
44,89
45,88
42,102
37,107
39,109
40,112
41,108
39,89
25,75
25,74
26,83
29,78
29,71
28,76
28,85
28,79
27,65
25,67
24,67
24,59
27,61
28,63
29,81
29,78
28,76
27,82
24,82
24,73
25,70
25,76
23,66
23,63
23,48
19,72
21,67
21,65
22,64
25,75
25,70
25,76
23,66
23,63
23,48
19,72
21,67
21,65
22,64
25,75
28,65
27,71
27,81
29,90
27,81
26,73
26,75
27,70
25,63
25,65
24,74
24,65
22,71
18,66
19,73
19,66
25,64
26,53
27,79
26,72
24,74
24,65
22,71
18,66
19,73
19,66
25,64
26,53
27,79
26,72
26,71
20,73
21,81
21,63
22,72
21,73
20,89
21,85
22,82
23,74
23,80
24,67
21,63
26,66
28,69
28,69
28,64
27,63
21,68
17,68
23,80
24,67
21,63
26,66
28,69
28,69
28,64
27,63
21,68
17,68
22,59
28,72
30,82
31,73
31,71
29,71
24,85
24,78
24,82
24,82
22,92
23,68
22,81
23,77
23,80
22,69
20,70
21,66
21,77
25,82
22,92
23,68
22,81
23,77
23,80
22,69
20,70
21,66
21,77
25,82
27,85
29,94
31,88
29,79
28,69
27,68
27,63
24,61
25,75
23,81
22,79
20,74
22,72
22,77
23,71
25,71
24,73
23,80
23,72
25,75
22,79
20,74
22,72
22,77
23,71
25,71
24,73
23,80
23,72
25,75
26,75
27,75
27,72
28,61
30,76
27,83
26,80
24,72
23,72
19,62
22,54
21,54
23,56
21,63
20,55
17,62
21,62
21,67
21,67
21,71
22,54
21,54
23,56
21,63
20,55
17,62
21,62
21,67
21,67
21,71
23,76
20,77
19,82
21,77
24,77
23,63
26,74
26,65
27,65
25,62
28,97
26,89
27,88
26,89
24,94
25,62
23,61
24,61
26,65
28,66
28,97
26,89
27,88
26,89
24,94
25,62
23,61
24,61
26,65
28,66
25,67
24,67
23,70
21,67
20,57
21,54
24,64
25,79
25,76
23,78
22,81
22,87
23,72
24,72
25,70
26,73
25,68
23,67
22,73
21,72
22,81
22,87
23,72
24,72
25,70
26,73
25,68
23,67
22,73
21,72
20,60
20,50
22,68
22,64
23,63
25,65
22,77
21,71
21,69
20,72
20,77
19,67
20,56
21,57
21,57
19,66
19,74
22,75
19,75
22,83
20,77
19,67
20,56
21,57
21,57
19,66
19,74
22,75
19,75
22,83
21,68
22,61
20,66
21,79
21,69
22,71
23,70
23,74
24,71
25,75
24,74
24,82
25,88
23,87
22,92
22,91
25,82
28,68
29,85
32,88
24,74
24,82
25,88
23,87
22,92
22,91
25,82
28,68
29,85
32,88
35,92
33,91
34,92
35,72
46,83
50,95
62,110
65,115
72,119
72,126
76,141
70,142
70,145
65,144
63,142
60,127
58,115
58,107
55,112
55,105
76,141
70,142
70,145
65,144
63,142
60,127
58,115
58,107
55,112
55,105
48,92
48,92
49,99
50,95
48,84
47,85
51,99
51,101
49,98
48,94
53,103
50,92
48,83
50,81
48,82
45,68
48,67
43,69
41,88
40,86
31,66
33,80
32,80
35,71
31,71
32,77
32,63
34,64
27,60
29,73
29,66
25,67
23,74
25,84
24,76
25,83
26,82
29,86
31,73
34,68
35,65
37,84
34,76
32,78
29,84
24,82
22,64
22,66
23,65
24,59
35,65
37,84
34,76
32,78
29,84
24,82
22,64
22,66
23,65
24,59
27,95
33,119
33,117
34,117
33,120
35,94
29,63
29,67
28,69
29,63
26,66
26,65
24,63
24,55
30,69
30,76
30,73
31,72
33,81
28,71
26,66
26,65
24,63
24,55
30,69
30,76
30,73
31,72
33,81
28,71
30,71
31,74
32,82
31,80
31,78
27,66
29,78
28,67
30,63
31,63
31,69
28,57
28,58
24,62
22,59
23,58
23,54
24,71
25,66
26,67
31,69
28,57
28,58
24,62
22,59
23,58
23,54
24,71
25,66
26,67
26,65
26,70
25,59
24,61
24,63
28,67
30,66
31,64
29,71
29,69
24,62
23,59
21,85
23,79
24,80
25,90
24,93
26,67
25,66
28,82
24,62
23,59
21,85
23,79
24,80
25,90
24,93
26,67
25,66
28,82
29,72
29,64
27,73
26,81
22,67
23,71
27,70
29,79
29,73
29,70
28,69
22,87
27,75
28,78
29,86
30,84
31,67
27,65
28,69
27,69
28,69
22,87
27,75
28,78
29,86
30,84
31,67
27,65
28,69
27,69
28,68
25,65
28,93
25,89
26,84
24,84
25,94
21,81
26,79
28,80
29,83
29,75
30,72
27,80
24,78
25,76
25,73
26,63
24,51
27,57
29,83
29,75
30,72
27,80
24,78
25,76
25,73
26,63
24,51
27,57
27,57
26,67
23,67
25,72
23,68
22,73
27,69
29,66
27,66
26,67
29,66
24,60
23,58
24,56
26,67
23,59
23,64
25,73
23,88
22,82
29,66
24,60
23,58
24,56
26,67
23,59
23,64
25,73
23,88
22,82
23,85
25,82
24,80
27,64
27,64
25,61
23,71
24,66
24,61
23,64
26,64
27,55
25,55
26,57
30,57
32,64
31,67
32,65
34,68
34,63
26,64
27,55
25,55
26,57
30,57
32,64
31,67
32,65
34,68
34,63
30,66
31,75
32,77
28,73
28,70
30,85
30,78
28,77
28,77
25,87
24,68
29,70
30,74
31,82
32,79
32,79
34,84
35,81
38,76
38,73
24,68
29,70
30,74
31,82
32,79
32,79
34,84
35,81
38,76
38,73
39,72
32,57
32,59
28,56
29,58
37,64
43,81
45,86
47,89
49,93
49,92
51,87
52,98
56,105
56,110
55,118
53,127
55,130
52,132
53,139
49,92
51,87
52,98
56,105
56,110
55,118
53,127
55,130
52,132
53,139
53,138
52,132
52,132
45,86
47,89
51,118
52,112
48,95
53,88
49,80
47,78
49,76
51,90
47,97
48,96
45,98
44,95
39,81
39,76
49,80
47,78
49,76
51,90
47,97
48,96
45,98
44,95
39,81
39,76
49,80
48,76
48,82
52,85
53,82
42,81
47,86
52,91
50,91
49,92
55,95
57,104
55,100
52,95
51,94
49,90
42,79
40,77
40,77
40,74
35,72
27,66
27,69
30,63
25,56
29,62
28,60
28,61
27,61
29,60
28,57
28,58
29,50
27,62
24,71
22,68
23,67
25,65
25,61
26,49
26,55
26,66
24,68
25,64
24,64
22,64
24,52
24,56
23,52
25,58
25,54
26,66
24,68
25,64
24,64
22,64
24,52
24,56
23,52
25,58
25,54
26,59
27,53
27,75
27,80
29,78
29,74
29,76
30,59
29,49
29,70
25,75
25,75
25,76
24,75
24,67
25,65
27,67
25,71
24,69
24,57
25,75
25,75
25,76
24,75
24,67
25,65
27,67
25,71
24,69
24,57
25,53
26,71
27,65
27,65
28,64
26,74
21,52
24,56
26,69
25,75
26,65
28,71
24,67
23,66
23,60
25,62
22,64
22,64
22,54
25,59
26,65
28,71
24,67
23,66
23,60
25,62
22,64
22,64
22,54
25,59
24,69
25,62
26,62
28,67
25,68
26,57
25,56
27,62
24,66
26,65
25,66
27,70
26,70
28,58
28,57
29,61
27,60
28,55
26,56
25,56
25,66
27,70
26,70
28,58
28,57
29,61
27,60
28,55
26,56
25,56
24,67
22,66
19,73
19,82
25,79
25,73
31,72
31,72
33,66
28,64
31,56
25,69
26,64
23,61
24,64
21,65
24,58
22,62
23,71
22,68
31,56
25,69
26,64
23,61
24,64
21,65
24,58
22,62
23,71
22,68
22,66
20,60
22,76
21,72
25,72
25,73
24,82
30,60
30,75
30,75
30,82
31,75
25,74
26,60
23,70
25,62
23,59
26,59
24,66
35,54
30,82
31,75
25,74
26,60
23,70
25,62
23,59
26,59
24,66
35,54
33,53
36,64
35,63
35,55
27,67
28,69
26,63
26,64
27,76
25,65
23,64
20,58
25,59
26,48
27,71
29,74
30,78
26,83
24,78
23,57
23,64
20,58
25,59
26,48
27,71
29,74
30,78
26,83
24,78
23,57
22,67
23,70
23,69
23,69
22,72
22,78
21,72
21,70
21,79
21,78
20,62
18,63
18,68
18,55
19,53
19,54
24,59
23,51
25,53
26,55
20,62
18,63
18,68
18,55
19,53
19,54
24,59
23,51
25,53
26,55
26,61
25,53
25,53
22,51
21,62
23,63
22,64
24,72
24,72
24,64
21,62
23,65
23,61
25,64
28,63
29,88
28,87
27,84
28,82
24,86
21,62
23,65
23,61
25,64
28,63
29,88
28,87
27,84
28,82
24,86
29,60
29,63
29,68
30,68
31,62
26,70
26,66
24,60
23,64
23,67
29,81
29,86
33,88
33,96
36,94
34,76
41,91
45,95
54,113
54,118
29,81
29,86
33,88
33,96
36,94
34,76
41,91
45,95
54,113
54,118
60,128
56,121
54,126
49,110
64,135
59,128
64,125
64,122
62,122
49,93
51,91
43,89
45,87
48,78
45,72
44,66
55,73
54,70
50,68
49,71
51,91
43,89
45,87
48,78
45,72
44,66
55,73
54,70
50,68
49,71
48,76
42,73
39,69
41,74
51,84
48,77
45,73
48,83
49,90
39,80
39,88
37,90
34,82
32,69
32,66
35,58
48,57
48,52
49,60
50,77
29,86
29,95
26,95
25,100
25,101
24,75
20,88
18,93
25,107
25,117
26,122
28,103
30,109
24,91
25,73
25,69
23,72
23,75
25,76
26,79
28,93
28,99
27,86
27,91
24,103
23,89
30,87
30,87
29,81
30,60
28,93
28,99
27,86
27,91
24,103
23,89
30,87
30,87
29,81
30,60
27,58
20,58
21,55
24,58
24,60
24,66
25,65
28,62
28,57
29,62
29,67
28,57
26,64
24,66
24,59
25,63
25,71
23,65
22,65
21,86
29,67
28,57
26,64
24,66
24,59
25,63
25,71
23,65
22,65
21,86
21,77
21,71
20,73
20,88
20,70
21,81
25,80
27,86
26,73
27,85
26,72
25,78
23,71
24,68
25,57
26,61
25,59
25,58
24,57
24,73
26,72
25,78
23,71
24,68
25,57
26,61
25,59
25,58
24,57
24,73
25,70
23,68
24,76
23,87
23,71
22,69
24,73
23,68
24,71
24,71
22,75
19,69
22,65
22,60
28,65
28,61
30,69
30,103
29,99
24,95
22,75
19,69
22,65
22,60
28,65
28,61
30,69
30,103
29,99
24,95
23,94
23,96
22,73
22,67
25,76
24,81
28,73
28,64
28,63
26,64
27,66
23,65
25,64
25,64
24,54
24,46
27,73
25,72
24,72
23,76
27,66
23,65
25,64
25,64
24,54
24,46
27,73
25,72
24,72
23,76
22,88
24,81
23,79
23,86
26,85
29,86
25,76
26,84
27,77
25,79
23,77
23,78
24,70
24,69
24,63
23,75
24,74
25,73
24,74
25,81
23,77
23,78
24,70
24,69
24,63
23,75
24,74
25,73
24,74
25,81
25,65
24,60
22,69
21,74
27,80
26,71
26,80
26,74
26,70
19,68
19,79
21,71
22,69
22,73
25,77
25,66
25,66
26,72
27,75
24,59
19,79
21,71
22,69
22,73
25,77
25,66
25,66
26,72
27,75
24,59
23,59
22,73
19,75
20,68
22,69
24,77
25,66
27,65
25,70
24,74
24,67
22,74
20,73
23,72
22,68
22,68
23,67
25,61
25,58
24,55
24,67
22,74
20,73
23,72
22,68
22,68
23,67
25,61
25,58
24,55
25,59
23,67
24,66
23,82
26,85
28,87
30,72
28,71
27,59
27,57
24,60
20,70
22,74
22,70
24,69
27,72
28,66
25,62
28,74
25,77
24,60
20,70
22,74
22,70
24,69
27,72
28,66
25,62
28,74
25,77
23,79
22,81
22,83
21,77
25,91
28,82
28,79
29,78
27,73
25,56
26,73
35,82
35,83
37,86
39,93
44,86
42,83
53,101
58,108
64,118
26,73
35,82
35,83
37,86
39,93
44,86
42,83
53,101
58,108
64,118
61,116
66,129
60,116
56,108
51,105
56,115
47,100
53,106
56,110
53,99
47,86
48,89
38,86
34,96
38,97
41,94
39,89
45,95
45,81
43,76
47,86
48,89
38,86
34,96
38,97
41,94
39,89
45,95
45,81
43,76
44,81
46,79
41,65
42,71
43,71
42,70
41,72
41,73
40,73
35,76
33,77
34,74
33,73
36,76
38,82
37,78
32,81
37,79
34,74
36,67
30,75
30,73
31,70
26,53
24,68
26,65
26,67
25,73
26,75
26,67
22,66
23,79
27,84
23,80
24,83
25,83
24,72
20,60
19,61
20,54
22,50
24,50
24,56
26,53
24,51
24,70
23,71
22,69
20,68
19,70
22,50
24,50
24,56
26,53
24,51
24,70
23,71
22,69
20,68
19,70
18,80
18,77
19,75
22,82
23,78
24,61
26,63
24,71
23,62
21,65
18,60
19,91
25,85
25,86
26,88
27,87
26,65
19,64
18,71
16,65
18,60
19,91
25,85
25,86
26,88
27,87
26,65
19,64
18,71
16,65
18,64
19,54
21,73
23,69
23,74
21,73
20,74
19,60
19,57
21,51
21,63
22,64
22,66
20,70
20,75
20,65
19,60
22,84
25,85
28,81
21,63
22,64
22,66
20,70
20,75
20,65
19,60
22,84
25,85
28,81
27,80
29,85
28,71
25,67
22,65
27,73
24,66
24,49
25,56
24,67
18,60
19,62
18,63
22,76
24,66
24,65
26,68
30,82
27,73
27,74
18,60
19,62
18,63
22,76
24,66
24,65
26,68
30,82
27,73
27,74
27,76
25,81
23,65
23,65
22,67
22,81
22,73
20,74
22,74
24,103
25,96
26,98
25,104
23,97
20,77
18,71
16,69
15,69
18,73
18,71
25,96
26,98
25,104
23,97
20,77
18,71
16,69
15,69
18,73
18,71
22,77
23,79
23,70
22,66
24,75
25,79
24,77
23,80
26,104
25,97
22,91
22,97
23,96
22,74
23,72
27,86
27,78
27,76
25,91
24,87
22,91
22,97
23,96
22,74
23,72
27,86
27,78
27,76
25,91
24,87
22,70
23,70
25,82
25,67
26,62
24,72
23,75
20,64
19,72
22,80
26,70
27,69
29,75
28,83
25,76
20,77
18,76
23,76
25,64
26,64
26,70
27,69
29,75
28,83
25,76
20,77
18,76
23,76
25,64
26,64
27,69
28,69
23,63
22,59
23,66
25,66
26,67
26,75
26,91
25,89
21,86
24,92
25,93
26,74
26,68
26,74
26,73
23,68
23,67
24,73
21,86
24,92
25,93
26,74
26,68
26,74
26,73
23,68
23,67
24,73
24,65
22,61
23,63
22,76
23,71
25,73
22,74
24,72
22,58
23,62
24,71
23,71
23,71
23,76
24,81
24,76
26,76
34,80
37,76
42,71
24,71
23,71
23,71
23,76
24,81
24,76
26,76
34,80
37,76
42,71
44,69
46,75
53,96
63,112
64,117
65,118
66,121
58,107
56,108
57,116
61,129
61,127
62,128
56,126
53,124
49,113
52,116
51,116
56,123
61,122
61,129
61,127
62,128
56,126
53,124
49,113
52,116
51,116
56,123
61,122
59,119
55,110
54,108
45,83
36,66
37,76
38,86
35,79
35,78
39,83
39,80
37,69
40,69
40,73
38,70
38,67
37,67
35,66
40,66
44,70
39,80
37,69
40,69
40,73
38,70
38,67
37,67
35,66
40,66
44,70
43,77
44,79
49,85
45,87
46,87
45,81
44,77
41,72
39,64
33,62
33,75
42,82
45,91
45,91
48,99
48,90
43,89
39,84
40,99
40,89
24,73
24,72
24,96
23,89
25,91
25,89
23,91
19,76
18,75
17,73
19,81
16,76
20,60
25,64
24,70
24,63
24,61
21,61
16,59
20,60
23,60
24,58
25,82
24,76
21,77
23,79
23,85
24,63
25,63
27,72
23,60
24,58
25,82
24,76
21,77
23,79
23,85
24,63
25,63
27,72
22,74
21,72
18,70
19,72
17,86
20,83
21,79
21,80
22,83
22,58
19,57
19,57
19,68
21,62
23,64
26,67
25,74
26,67
25,68
23,83
19,57
19,57
19,68
21,62
23,64
26,67
25,74
26,67
25,68
23,83
24,81
26,76
24,72
21,74
21,51
20,71
18,71
19,82
19,80
19,81
20,69
22,76
21,65
23,65
22,59
20,59
19,48
19,47
18,60
21,70
20,69
22,76
21,65
23,65
22,59
20,59
19,48
19,47
18,60
21,70
23,75
23,76
22,82
23,72
21,62
22,64
22,68
26,59
26,59
29,79
27,75
28,73
25,77
25,85
25,72
26,70
26,75
28,74
28,67
25,67
27,75
28,73
25,77
25,85
25,72
26,70
26,75
28,74
28,67
25,67
22,73
20,68
17,65
14,63
15,64
24,60
24,60
25,69
25,70
25,65
18,67
19,75
21,66
21,66
21,68
22,64
21,54
18,54
20,59
18,62
18,67
19,75
21,66
21,66
21,68
22,64
21,54
18,54
20,59
18,62
20,63
21,60
22,63
22,65
23,60
21,58
21,65
21,65
20,60
22,62
23,92
25,101
23,99
24,99
22,105
22,81
19,71
20,69
20,76
23,69
23,92
25,101
23,99
24,99
22,105
22,81
19,71
20,69
20,76
23,69
22,62
22,64
21,65
20,65
15,65
16,64
18,57
20,63
23,52
23,50
23,58
21,54
20,51
17,52
18,62
17,57
19,58
19,61
22,67
21,59
23,58
21,54
20,51
17,52
18,62
17,57
19,58
19,61
22,67
21,59
22,58
20,57
22,63
22,61
22,64
22,63
25,70
24,66
22,73
21,74
21,80
20,73
22,70
22,53
24,61
24,55
23,55
22,54
20,77
18,74
21,80
20,73
22,70
22,53
24,61
24,55
23,55
22,54
20,77
18,74
18,73
19,74
21,77
19,63
19,59
17,64
17,78
15,75
18,71
19,75
20,71
20,69
28,82
28,85
31,84
34,85
38,81
35,68
37,63
36,60
20,71
20,69
28,82
28,85
31,84
34,85
38,81
35,68
37,63
36,60
40,65
41,70
48,81
50,87
54,93
53,99
53,97
50,92
51,91
46,81
44,72
45,69
42,66
39,79
41,89
47,95
43,97
43,100
43,91
41,84
44,72
45,69
42,66
39,79
41,89
47,95
43,97
43,100
43,91
41,84
32,73
32,65
36,63
35,54
37,57
38,56
43,70
39,71
38,72
38,69
38,71
33,56
37,58
38,60
35,61
34,61
35,64
34,53
33,59
38,72
38,71
33,56
37,58
38,60
35,61
34,61
35,64
34,53
33,59
38,72
43,75
41,74
40,77
41,77
44,77
41,74
43,76
43,77
45,74
38,62
36,63
38,67
36,62
35,59
37,56
43,51
41,58
40,62
39,67
38,68
30,64
27,67
25,59
22,55
21,55
23,58
23,49
23,50
24,51
25,64
23,53
30,56
31,64
33,76
32,65
32,71
31,74
33,64
32,52
34,54
37,63
33,56
32,70
32,75
31,75
26,84
24,87
21,78
21,88
23,89
37,63
33,56
32,70
32,75
31,75
26,84
24,87
21,78
21,88
23,89
24,76
25,77
23,75
22,59
20,66
23,68
23,64
26,79
26,80
26,82
22,72
22,79
24,65
27,70
26,76
26,91
27,86
25,84
23,80
23,70
22,72
22,79
24,65
27,70
26,76
26,91
27,86
25,84
23,80
23,70
24,57
23,73
23,79
21,77
20,73
22,83
24,76
23,73
24,77
23,78
22,73
19,72
23,72
24,69
27,105
26,104
27,101
22,109
22,112
24,83
22,73
19,72
23,72
24,69
27,105
26,104
27,101
22,109
22,112
24,83
26,78
27,77
27,73
28,74
23,67
24,66
23,65
23,69
23,62
23,64
23,81
28,84
28,78
28,76
28,79
27,59
21,57
21,60
21,65
21,57
23,81
28,84
28,78
28,76
28,79
27,59
21,57
21,60
21,65
21,57
20,57
20,88
19,79
20,76
25,78
25,85
27,67
25,67
23,71
24,77
25,71
29,85
30,100
31,98
26,91
26,89
20,62
21,46
25,46
28,48
25,71
29,85
30,100
31,98
26,91
26,89
20,62
21,46
25,46
28,48
28,50
27,63
28,57
24,58
23,59
23,64
23,69
20,72
21,76
21,79
21,73
22,61
22,55
23,55
20,57
22,64
26,71
29,82
28,79
29,73
21,73
22,61
22,55
23,55
20,57
22,64
26,71
29,82
28,79
29,73
27,69
23,71
21,60
22,59
25,60
25,71
24,63
25,65
25,64
24,74
27,60
27,64
26,62
26,73
23,64
22,65
22,62
21,72
22,64
21,62
27,60
27,64
26,62
26,73
23,64
22,65
22,62
21,72
22,64
21,62
20,66
28,76
28,66
28,67
30,67
29,69
23,66
28,66
29,69
27,69
28,62
27,55
23,77
21,76
22,76
22,77
23,81
21,64
22,62
23,73
28,62
27,55
23,77
21,76
22,76
22,77
23,81
21,64
22,62
23,73
22,73
23,65
23,62
24,79
22,70
22,73
21,80
20,82
22,66
24,66
25,64
25,62
26,64
24,63
23,74
25,73
26,68
25,62
24,80
25,72
17,18
18,19
17,18
18,18
18,18
19,20
19,19
21,19
17,20
18,19
18,17
17,18
17,19
17,18
17,19
15,19
16,18
14,17
15,17
16,18
16,18
16,18
16,18
15,20
17,19
17,19
16,19
18,19
18,17
17,16
16,18
16,18
16,18
15,20
17,19
17,19
16,19
18,19
18,17
17,16
17,16
17,18
17,19
17,20
16,20
16,20
16,19
15,18
15,18
16,21
15,20
17,19
15,20
14,20
16,20
17,20
16,18
17,16
17,18
15,15
15,20
17,19
15,20
14,20
16,20
17,20
16,18
17,16
17,18
15,15
16,15
16,17
15,19
15,18
14,18
14,19
14,17
14,18
14,17
14,18
15,19
15,21
16,20
16,20
18,20
16,17
15,16
15,16
15,15
13,16
15,19
15,21
16,20
16,20
18,20
16,17
15,16
15,16
15,15
13,16
14,17
15,16
14,15
14,16
14,16
13,16
12,17
13,18
14,19
14,19
15,17
16,17
14,16
15,16
16,16
16,17
15,17
17,19
17,18
17,19
15,17
16,17
14,16
15,16
16,16
16,17
15,17
17,19
17,18
17,19
16,20
19,20
18,19
19,19
18,21
18,19
16,19
18,20
18,21
17,19
17,21
16,21
15,21
15,19
15,19
16,19
16,19
15,18
14,20
14,21
17,21
16,21
15,21
15,19
15,19
16,19
16,19
15,18
14,20
14,21
16,22
18,23
18,22
18,21
18,22
17,19
16,17
18,17
18,20
18,17
18,19
17,20
17,20
16,18
16,20
17,19
16,17
16,19
17,18
18,18
18,19
17,20
17,20
16,18
16,20
17,19
16,17
16,19
17,18
18,18
17,18
16,18
17,18
17,19
16,18
17,18
16,18
17,17
18,17
19,17
19,17
19,20
18,20
16,20
16,19
17,19
17,17
17,17
18,19
16,21
19,17
19,20
18,20
16,20
16,19
17,19
17,17
17,17
18,19
16,21
16,22
17,22
19,21
19,20
18,19
19,17
18,19
16,20
17,21
17,23
18,23
16,20
16,21
17,20
17,18
17,18
19,20
20,17
20,16
20,17
18,23
16,20
16,21
17,20
17,18
17,18
19,20
20,17
20,16
20,17
20,18
18,19
18,20
16,20
15,18
18,18
18,17
17,16
17,15
17,19
14,19
15,18
14,19
17,21
17,19
18,18
19,18
19,17
15,15
17,14
14,19
15,18
14,19
17,21
17,19
18,18
19,18
19,17
15,15
17,14
16,14
14,15
15,15
17,18
16,20
16,20
17,19
17,19
15,18
17,18
17,19
18,20
18,21
18,20
16,19
15,18
14,17
14,17
13,20
14,19
17,19
18,20
18,21
18,20
16,19
15,18
14,17
14,17
13,20
14,19
15,19
15,23
15,23
17,22
16,22
16,23
16,20
17,21
16,21
15,21
15,21
16,21
15,23
17,22
17,20
16,20
17,20
16,15
14,18
14,20
15,21
16,21
15,23
17,22
17,20
16,20
17,20
16,15
14,18
14,20
15,20
14,24
15,24
16,24
16,24
15,24
17,21
16,22
16,22
18,21
18,21
17,21
19,24
19,25
17,28
19,30
21,31
22,28
24,32
23,29
58,35
51,32
56,49
86,52
105,62
127,62
146,70
260,96
304,106
324,111
350,113
345,110
297,82
253,75
232,67
239,98
245,107
217,108
264,121
311,122
292,100
303,99
340,107
312,94
281,92
259,89
249,81
188,70
178,63
146,61
292,100
303,99
340,107
312,94
281,92
259,89
249,81
188,70
178,63
146,61
135,58
116,52
137,48
194,55
189,47
199,49
197,51
207,55
168,49
168,51
160,51
169,52
158,49
163,48
164,48
177,44
171,47
171,55
210,62
254,70
160,51
169,52
158,49
163,48
164,48
177,44
171,47
171,55
210,62
254,70
257,78
257,76
246,69
197,62
142,55
124,44
149,45
163,49
179,59
180,60
187,59
182,63
170,60
166,55
153,53
148,59
144,59
153,62
146,57
182,62
187,59
182,63
170,60
166,55
153,53
148,59
144,59
153,62
146,57
182,62
185,59
175,55
174,53
184,54
150,48
139,52
135,51
159,51
138,45
139,47
154,39
165,45
132,46
132,46
134,43
121,42
112,40
124,44
147,56
152,56
154,39
165,45
132,46
132,46
134,43
121,42
112,40
124,44
147,56
152,56
152,56
151,55
145,49
122,35
125,44
121,43
120,44
107,42
103,43
81,33
76,32
63,34
68,36
95,38
134,40
156,48
167,51
173,51
159,51
133,51
76,32
63,34
68,36
95,38
134,40
156,48
167,51
173,51
159,51
133,51
116,47
101,40
109,42
114,41
116,38
121,34
124,36
106,32
100,30
97,33
74,34
72,35
88,37
103,40
108,38
118,42
127,41
130,43
152,47
148,50
74,34
72,35
88,37
103,40
108,38
118,42
127,41
130,43
152,47
148,50
146,48
143,47
140,44
108,37
104,33
103,32
98,31
95,34
108,43
121,43
132,48
131,48
166,49
156,45
149,49
142,44
159,48
122,46
132,43
153,45
132,48
131,48
166,49
156,45
149,49
142,44
159,48
122,46
132,43
153,45
155,53
140,49
136,48
124,46
104,43
89,32
85,30
97,31
105,40
133,53
145,61
167,65
163,66
174,65
163,60
162,52
145,51
160,53
156,49
145,42
145,61
167,65
163,66
174,65
163,60
162,52
145,51
160,53
156,49
145,42
149,46
152,46
139,46
139,53
153,59
146,59
145,65
141,62
129,55
112,46
119,45
109,37
107,41
118,40
116,40
124,46
170,52
190,51
197,54
233,60
119,45
109,37
107,41
118,40
116,40
124,46
170,52
190,51
197,54
233,60
236,53
212,44
210,49
210,50
177,49
160,49
153,48
133,43
135,45
138,41
142,46
143,47
139,46
116,36
98,38
89,32
106,39
111,38
108,40
106,37
142,46
143,47
139,46
116,36
98,38
89,32
106,39
111,38
108,40
106,37
138,46
121,39
117,39
126,42
130,44
118,40
124,42
133,44
149,43
155,43
142,42
136,39
126,41
123,39
116,39
138,42
151,42
155,40
137,38
144,36
142,42
136,39
126,41
123,39
116,39
138,42
151,42
155,40
137,38
144,36
122,33
112,39
107,38
121,40
106,40
94,38
85,36
81,37
41,36
35,40
34,41
38,39
74,39
82,40
85,35
85,36
111,38
100,40
99,42
105,46
285,124
301,136
318,137
317,131
280,121
261,113
205,82
168,68
156,56
198,68
204,69
198,70
216,72
216,76
235,69
242,72
237,66
235,68
235,66
192,60
221,62
232,61
225,53
223,49
217,52
171,47
165,51
163,60
182,65
175,67
221,62
232,61
225,53
223,49
217,52
171,47
165,51
163,60
182,65
175,67
187,65
172,62
190,54
195,53
205,50
213,52
237,51
231,66
218,63
215,70
204,73
173,74
150,68
132,66
127,57
136,50
206,47
206,43
218,48
213,49
204,73
173,74
150,68
132,66
127,57
136,50
206,47
206,43
218,48
213,49
207,54
139,55
135,54
114,52
123,50
153,52
156,49
170,47
183,51
188,53
164,51
197,57
193,60
185,59
166,56
171,57
155,56
155,53
160,50
165,53
164,51
197,57
193,60
185,59
166,56
171,57
155,56
155,53
160,50
165,53
168,51
144,47
145,48
143,46
142,45
144,47
149,46
142,44
150,50
158,54
141,50
166,56
191,61
185,57
181,54
189,54
162,52
127,49
112,49
106,51
141,50
166,56
191,61
185,57
181,54
189,54
162,52
127,49
112,49
106,51
95,52
102,50
147,57
148,57
148,52
146,52
153,54
110,44
142,45
148,46
154,51
152,47
191,53
167,47
164,51
172,49
177,52
138,54
146,56
158,59
154,51
152,47
191,53
167,47
164,51
172,49
177,52
138,54
146,56
158,59
153,58
155,59
163,53
173,55
171,52
179,53
168,52
154,51
161,57
160,60
163,58
164,55
168,58
160,48
156,39
141,40
133,43
146,46
149,48
151,56
163,58
164,55
168,58
160,48
156,39
141,40
133,43
146,46
149,48
151,56
151,56
150,54
154,54
136,54
133,46
143,47
155,51
131,49
170,47
162,45
166,43
173,44
192,45
192,54
209,59
195,60
189,56
178,62
145,55
141,54
166,43
173,44
192,45
192,54
209,59
195,60
189,56
178,62
145,55
141,54
154,53
142,52
150,47
165,45
152,42
137,41
142,42
137,40
116,41
110,41
121,41
130,44
114,44
121,46
122,45
121,46
109,42
139,51
146,51
159,56
121,41
130,44
114,44
121,46
122,45
121,46
109,42
139,51
146,51
159,56
168,54
166,57
150,52
154,52
142,48
150,49
144,43
144,44
125,47
132,49
108,49
124,51
124,48
129,43
144,45
153,44
161,46
161,44
160,51
149,54
108,49
124,51
124,48
129,43
144,45
153,44
161,46
161,44
160,51
149,54
152,56
158,53
168,54
187,54
182,55
173,54
153,57
156,62
134,58
134,54
142,53
160,52
147,43
142,43
139,40
121,38
88,35
79,39
66,38
63,39
142,53
160,52
147,43
142,43
139,40
121,38
88,35
79,39
66,38
63,39
87,44
103,46
114,44
140,48
153,48
153,51
144,49
148,53
140,52
158,53
155,55
183,56
174,49
167,44
139,49
136,44
126,47
124,49
130,52
134,45
155,55
183,56
174,49
167,44
139,49
136,44
126,47
124,49
130,52
134,45
134,41
125,38
121,38
108,32
103,30
92,36
67,46
63,50
62,61
52,69
101,72
111,67
117,66
123,58
134,61
117,61
124,62
128,62
133,65
177,76
190,84
219,99
212,103
230,109
247,107
239,110
221,106
209,98
184,86
158,80
195,71
196,62
194,58
225,62
234,61
220,54
232,62
242,64
276,60
288,72
325,92
325,101
369,117
374,127
385,125
381,131
394,124
389,118
354,108
323,103
325,92
325,101
369,117
374,127
385,125
381,131
394,124
389,118
354,108
323,103
293,82
272,81
219,69
200,66
256,73
312,84
318,82
323,93
343,96
318,98
236,86
254,80
271,71
267,71
261,63
279,70
256,75
248,74
233,69
218,67
236,86
254,80
271,71
267,71
261,63
279,70
256,75
248,74
233,69
218,67
194,62
188,53
162,54
169,54
175,58
196,52
178,51
177,47
163,47
167,44
169,48
183,54
195,62
189,66
184,65
167,64
174,65
160,63
204,67
199,68
169,48
183,54
195,62
189,66
184,65
167,64
174,65
160,63
204,67
199,68
215,71
204,71
213,71
190,70
194,73
231,69
236,73
230,68
217,69
223,64
176,72
191,74
196,76
236,81
290,92
285,86
278,80
304,77
285,70
228,58
176,72
191,74
196,76
236,81
290,92
285,86
278,80
304,77
285,70
228,58
237,61
229,58
204,62
191,61
186,63
181,58
194,65
212,65
233,71
233,65
238,70
231,64
208,65
201,57
212,67
209,59
216,65
220,68
206,74
214,71
238,70
231,64
208,65
201,57
212,67
209,59
216,65
220,68
206,74
214,71
260,76
250,72
267,72
268,67
268,63
244,62
252,64
248,55
268,59
282,59
251,57
259,59
267,59
289,68
279,71
279,74
266,69
238,72
201,70
202,71
251,57
259,59
267,59
289,68
279,71
279,74
266,69
238,72
201,70
202,71
209,68
220,73
229,69
212,56
223,56
223,61
219,55
208,56
225,61
194,59
209,54
190,54
204,62
186,65
177,63
163,62
174,68
147,61
164,55
206,59
209,54
190,54
204,62
186,65
177,63
163,62
174,68
147,61
164,55
206,59
208,58
208,52
210,51
192,50
182,56
204,63
211,62
212,65
216,65
187,59
167,54
176,58
209,55
245,52
256,51
249,48
232,50
206,46
182,56
201,62
167,54
176,58
209,55
245,52
256,51
249,48
232,50
206,46
182,56
201,62
190,67
195,67
204,72
198,64
201,62
214,56
219,57
213,53
191,53
199,56
210,60
215,71
208,72
249,77
222,71
211,74
204,61
209,62
191,64
202,66
210,60
215,71
208,72
249,77
222,71
211,74
204,61
209,62
191,64
202,66
188,64
181,69
211,75
196,70
185,68
199,70
208,63
197,57
188,54
187,53
186,50
229,66
228,67
239,76
249,79
252,80
205,70
200,70
184,60
196,57
186,50
229,66
228,67
239,76
249,79
252,80
205,70
200,70
184,60
196,57
192,54
200,51
182,47
193,49
177,55
174,52
181,59
181,61
181,67
163,61
149,60
154,56
161,60
152,54
154,57
151,59
122,57
119,53
113,55
105,50
149,60
154,56
161,60
152,54
154,57
151,59
122,57
119,53
113,55
105,50
101,49
94,47
77,46
87,48
96,46
133,51
137,54
133,57
151,56
168,63
147,59
177,57
188,60
181,63
170,62
173,67
159,70
179,67
172,68
174,76
261,82
272,72
304,87
341,92
383,98
428,105
423,101
402,85
373,83
318,82
248,66
222,68
242,69
225,66
235,67
221,69
246,62
238,65
308,72
306,72
305,71
290,77
306,78
261,75
262,70
268,69
268,80
224,76
203,73
193,76
305,71
290,77
306,78
261,75
262,70
268,69
268,80
224,76
203,73
193,76
210,84
272,82
273,80
274,76
268,78
266,67
202,50
211,51
203,54
209,52
175,52
153,57
166,59
179,59
184,49
201,55
221,50
220,47
225,54
245,57
175,52
153,57
166,59
179,59
184,49
201,55
221,50
220,47
225,54
245,57
252,58
241,60
220,66
206,69
224,68
259,79
252,77
262,72
259,66
278,74
251,60
256,61
250,64
286,70
292,85
284,85
274,84
278,81
242,75
146,46
251,60
256,61
250,64
286,70
292,85
284,85
274,84
278,81
242,75
146,46
137,44
154,45
177,54
179,54
183,60
208,65
201,65
210,62
213,60
236,67
225,73
253,73
240,72
231,71
207,59
257,71
230,70
213,73
235,76
251,87
225,73
253,73
240,72
231,71
207,59
257,71
230,70
213,73
235,76
251,87
229,79
230,82
239,79
242,80
232,71
202,59
197,55
190,57
169,55
176,54
169,55
209,62
208,60
209,55
202,50
189,48
145,35
142,33
156,43
146,46
169,55
209,62
208,60
209,55
202,50
189,48
145,35
142,33
156,43
146,46
152,51
169,53
168,57
160,61
167,60
167,57
150,55
172,52
185,50
188,50
183,56
188,65
179,69
159,61
152,61
174,57
174,49
176,44
198,46
204,49
183,56
188,65
179,69
159,61
152,61
174,57
174,49
176,44
198,46
204,49
213,57
210,59
204,59
207,63
219,65
199,56
194,53
193,59
162,54
144,53
165,60
165,64
192,65
223,69
217,71
200,66
203,70
178,62
167,63
164,58
165,60
165,64
192,65
223,69
217,71
200,66
203,70
178,62
167,63
164,58
159,67
158,63
178,70
169,68
186,71
210,65
215,65
197,58
176,52
173,51
169,54
164,53
176,53
184,52
184,54
184,56
184,55
176,54
171,60
161,58
169,54
164,53
176,53
184,52
184,54
184,56
184,55
176,54
171,60
161,58
126,53
131,52
141,56
152,54
169,54
176,56
176,55
176,50
174,49
170,62
176,66
165,65
168,67
169,70
155,58
154,55
178,61
170,61
168,59
170,65
176,66
165,65
168,67
169,70
155,58
154,55
178,61
170,61
168,59
170,65
162,59
142,56
194,57
193,59
197,51
229,56
229,53
180,49
189,43
182,44
136,39
139,45
136,49
127,50
136,46
147,47
146,44
145,44
173,45
173,47
136,39
139,45
136,49
127,50
136,46
147,47
146,44
145,44
173,45
173,47
172,51
168,49
177,45
151,50
160,49
150,45
150,44
136,48
144,49
125,48
118,48
113,48
111,44
72,38
55,36
60,55
54,63
53,70
67,78
95,80
118,48
113,48
111,44
72,38
55,36
60,55
54,63
53,70
67,78
95,80
106,77
110,75
150,84
155,82
151,81
149,76
185,80
199,75
210,89
221,89
219,90
207,85
217,79
216,66
223,90
241,102
229,106
200,121
200,138
192,130
254,69
250,60
274,63
240,65
212,73
201,71
214,70
175,68
173,61
215,60
217,63
240,76
263,80
258,75
216,67
210,66
182,52
173,42
186,42
199,43
215,42
230,63
236,66
232,70
231,73
237,79
209,63
179,64
166,61
211,61
215,42
230,63
236,66
232,70
231,73
237,79
209,63
179,64
166,61
211,61
187,54
232,65
243,68
278,75
251,73
251,74
221,67
239,61
200,52
192,53
196,53
203,54
167,57
176,62
176,64
178,63
179,63
201,64
234,65
232,64
196,53
203,54
167,57
176,62
176,64
178,63
179,63
201,64
234,65
232,64
224,68
213,68
188,62
140,56
136,61
140,55
123,50
138,54
175,67
174,58
227,66
241,70
235,67
221,54
220,55
163,46
159,45
158,48
130,48
149,49
227,66
241,70
235,67
221,54
220,55
163,46
159,45
158,48
130,48
149,49
184,51
186,55
193,49
200,51
190,50
176,52
166,49
157,55
159,54
176,66
153,64
161,64
167,62
161,64
144,55
165,55
161,56
159,60
178,56
183,54
153,64
161,64
167,62
161,64
144,55
165,55
161,56
159,60
178,56
183,54
166,52
166,58
164,55
139,56
131,56
130,59
116,47
151,47
153,49
154,50
164,49
172,55
140,54
149,52
142,56
129,54
119,48
135,50
131,51
127,44
164,49
172,55
140,54
149,52
142,56
129,54
119,48
135,50
131,51
127,44
152,42
174,44
182,39
192,41
211,48
193,50
178,50
156,58
146,56
146,52
146,52
137,56
146,49
151,50
132,48
137,47
159,46
198,60
194,64
204,65
146,52
137,56
146,49
151,50
132,48
137,47
159,46
198,60
194,64
204,65
214,67
208,70
170,58
174,57
174,57
158,56
147,46
134,46
118,47
90,48
104,50
123,51
141,55
144,51
158,52
154,50
143,61
155,60
157,61
146,58
104,50
123,51
141,55
144,51
158,52
154,50
143,61
155,60
157,61
146,58
150,58
150,48
130,50
163,53
161,54
149,51
165,54
160,50
141,52
146,48
161,57
140,51
144,52
124,46
133,47
124,47
127,48
127,46
136,50
120,51
161,57
140,51
144,52
124,46
133,47
124,47
127,48
127,46
136,50
120,51
122,45
130,49
122,48
118,46
131,47
148,55
141,53
141,55
155,52
169,51
155,48
154,51
155,52
145,51
157,50
163,44
179,42
187,39
217,54
188,52
155,48
154,51
155,52
145,51
157,50
163,44
179,42
187,39
217,54
188,52
198,52
182,50
177,54
129,40
126,39
118,36
138,43
146,45
159,45
162,48
152,54
167,51
153,43
152,45
164,50
158,45
128,43
134,50
123,48
111,44
152,54
167,51
153,43
152,45
164,50
158,45
128,43
134,50
123,48
111,44
105,43
110,44
111,46
107,45
108,49
127,55
119,61
127,54
134,56
131,54
126,51
124,42
127,50
125,47
135,46
130,44
134,44
132,44
133,46
117,49
126,51
124,42
127,50
125,47
135,46
130,44
134,44
132,44
133,46
117,49
119,48
116,55
98,56
94,58
89,58
92,58
116,54
136,56
132,55
137,61
167,64
149,69
143,78
145,88
176,91
212,100
230,114
260,118
276,115
279,125
260,63
236,61
221,65
211,68
216,68
196,68
171,63
202,56
191,54
198,55
191,52
204,55
179,59
191,65
177,56
224,66
207,66
212,62
271,66
269,67
228,57
243,58
246,58
165,44
165,48
177,53
175,57
199,63
224,69
250,68
228,57
243,58
246,58
165,44
165,48
177,53
175,57
199,63
224,69
250,68
251,63
244,59
225,56
219,53
194,56
187,56
252,74
261,75
253,75
258,75
266,81
205,77
182,75
163,73
162,73
151,67
165,53
185,55
193,57
191,51
266,81
205,77
182,75
163,73
162,73
151,67
165,53
185,55
193,57
191,51
183,53
203,63
222,64
229,66
228,69
250,69
246,60
217,56
219,53
218,55
201,52
172,54
187,58
184,56
183,56
186,57
257,64
243,63
232,62
225,58
201,52
172,54
187,58
184,56
183,56
186,57
257,64
243,63
232,62
225,58
219,56
139,49
147,53
148,52
144,53
142,54
118,51
118,46
118,49
134,52
157,54
177,60
187,64
180,63
189,64
195,66
215,65
199,64
213,66
210,61
157,54
177,60
187,64
180,63
189,64
195,66
215,65
199,64
213,66
210,61
196,57
178,50
180,45
167,47
155,49
139,47
129,47
146,44
151,41
149,42
153,49
171,54
159,56
181,59
196,64
217,66
200,64
199,64
201,62
184,54
153,49
171,54
159,56
181,59
196,64
217,66
200,64
199,64
201,62
184,54
163,53
166,59
164,58
149,57
168,60
177,65
178,58
186,58
173,59
213,61
226,54
243,55
249,57
257,56
226,48
216,43
196,44
201,46
206,45
192,45
226,54
243,55
249,57
257,56
226,48
216,43
196,44
201,46
206,45
192,45
185,45
173,40
149,38
151,44
150,47
146,51
152,54
145,49
122,49
125,48
135,54
154,52
159,52
158,49
165,44
173,46
150,47
177,55
194,58
189,62
135,54
154,52
159,52
158,49
165,44
173,46
150,47
177,55
194,58
189,62
194,58
220,65
213,69
207,72
200,69
187,67
176,72
180,69
173,64
188,68
179,68
161,53
141,43
164,45
154,38
168,41
179,46
176,46
141,47
148,53
179,68
161,53
141,43
164,45
154,38
168,41
179,46
176,46
141,47
148,53
133,51
122,51
130,55
144,60
132,56
143,56
146,52
141,52
130,45
135,46
118,48
108,48
97,42
101,45
101,51
114,47
143,48
182,52
193,51
206,47
118,48
108,48
97,42
101,45
101,51
114,47
143,48
182,52
193,51
206,47
196,47
176,49
154,50
137,49
126,46
140,48
152,49
139,47
139,46
125,46
118,44
98,41
86,38
84,41
80,40
64,43
57,43
80,44
130,51
136,52
118,44
98,41
86,38
84,41
80,40
64,43
57,43
80,44
130,51
136,52
141,48
153,56
153,63
129,56
125,59
120,60
103,54
125,60
122,75
128,82
141,83
180,92
202,93
222,88
222,84
235,101
216,99
189,93
177,96
219,114
141,83
180,92
202,93
222,88
222,84
235,101
216,99
189,93
177,96
219,114
210,106
246,117
253,137
241,136
249,155
248,170
222,165
206,147
219,158
169,137
158,112
154,131
195,138
187,131
199,117
212,125
211,104
211,98
217,100
206,106
232,67
280,68
238,62
257,63
254,57
233,58
213,64
218,64
206,60
209,64
207,60
168,57
176,61
175,64
175,62
170,65
188,63
185,65
170,66
188,64
210,61
230,64
227,62
227,62
237,65
224,64
194,58
194,55
210,55
208,53
210,61
230,64
227,62
227,62
237,65
224,64
194,58
194,55
210,55
208,53
212,51
204,48
247,52
236,55
216,55
211,68
229,74
178,71
180,70
185,68
192,64
172,63
173,65
190,69
176,70
166,62
158,57
147,52
148,47
182,55
192,64
172,63
173,65
190,69
176,70
166,62
158,57
147,52
148,47
182,55
188,58
198,56
199,62
186,68
161,64
156,67
150,68
139,65
154,54
150,54
145,51
146,52
190,53
192,57
204,57
206,56
199,54
181,48
193,46
186,49
145,51
146,52
190,53
192,57
204,57
206,56
199,54
181,48
193,46
186,49
187,50
198,56
189,57
152,56
159,52
170,54
194,54
204,58
212,56
233,66
224,66
228,69
221,66
226,66
196,58
192,53
158,42
158,46
148,49
165,48
224,66
228,69
221,66
226,66
196,58
192,53
158,42
158,46
148,49
165,48
198,60
204,63
204,61
214,62
215,66
193,58
190,55
184,57
166,54
172,57
185,61
190,66
187,66
196,71
194,70
169,65
178,62
172,64
173,59
164,55
185,61
190,66
187,66
196,71
194,70
169,65
178,62
172,64
173,59
164,55
175,59
157,57
166,51
159,54
151,51
152,50
148,50
168,52
170,48
159,47
145,47
138,46
126,43
119,41
127,38
138,44
149,43
130,41
132,43
198,50
145,47
138,46
126,43
119,41
127,38
138,44
149,43
130,41
132,43
198,50
203,48
200,48
204,48
203,50
143,46
146,41
164,47
162,50
168,53
185,52
170,52
149,46
161,48
176,45
172,51
177,48
179,49
174,57
187,70
167,68
170,52
149,46
161,48
176,45
172,51
177,48
179,49
174,57
187,70
167,68
169,73
173,73
168,68
139,55
152,53
160,53
157,57
184,58
178,60
172,60
164,55
159,51
144,50
156,49
167,57
163,63
183,66
203,63
198,59
202,53
164,55
159,51
144,50
156,49
167,57
163,63
183,66
203,63
198,59
202,53
229,50
222,44
198,46
194,50
180,50
169,57
163,61
165,59
167,62
177,63
162,55
178,53
199,53
213,55
213,53
204,51
188,53
155,54
184,51
192,52
162,55
178,53
199,53
213,55
213,53
204,51
188,53
155,54
184,51
192,52
207,61
204,56
210,55
183,56
197,59
182,57
186,63
175,62
166,63
138,64
162,64
155,60
161,64
145,63
140,69
117,68
158,77
165,78
166,76
154,66
162,64
155,60
161,64
145,63
140,69
117,68
158,77
165,78
166,76
154,66
145,64
102,54
85,49
91,54
102,59
103,59
98,57
92,61
116,61
111,69
184,76
204,83
211,88
214,93
222,93
180,87
181,87
186,88
172,81
163,77
184,76
204,83
211,88
214,93
222,93
180,87
181,87
186,88
172,81
163,77
156,75
151,80
159,76
164,110
169,132
188,140
196,139
224,166
231,152
241,143
243,146
257,148
259,134
258,135
251,130
246,148
248,164
211,161
218,160
237,174
257,58
225,61
246,65
242,64
202,68
206,67
192,63
170,63
182,72
182,73
178,70
178,65
173,62
177,54
167,51
168,74
178,78
200,78
196,78
215,77
201,53
187,51
183,52
177,50
150,49
160,53
191,52
205,55
248,70
244,71
201,53
187,51
183,52
177,50
150,49
160,53
191,52
205,55
248,70
244,71
248,73
241,72
251,82
217,80
239,80
235,78
222,78
179,64
162,55
137,54
139,54
166,52
179,56
182,56
174,52
176,56
174,58
162,54
174,54
204,63
139,54
166,52
179,56
182,56
174,52
176,56
174,58
162,54
174,54
204,63
214,67
198,68
218,68
204,65
179,57
158,50
223,62
220,60
226,61
275,65
298,68
260,57
248,60
260,60
222,55
200,48
198,47
234,62
219,62
223,66
298,68
260,57
248,60
260,60
222,55
200,48
198,47
234,62
219,62
223,66
224,72
212,70
202,64
261,68
258,73
247,69
243,70
219,61
157,57
134,45
156,48
173,49
181,48
166,45
172,45
200,52
202,55
190,57
192,58
182,58
156,48
173,49
181,48
166,45
172,45
200,52
202,55
190,57
192,58
182,58
135,50
151,55
201,68
203,69
204,71
207,73
189,66
151,54
162,62
169,63
188,64
194,65
199,67
224,62
233,67
210,66
205,66
184,60
131,55
130,52
188,64
194,65
199,67
224,62
233,67
210,66
205,66
184,60
131,55
130,52
174,56
207,54
218,54
219,58
208,53
202,46
185,50
222,53
220,48
213,45
195,46
193,49
141,45
148,49
171,56
178,61
156,59
164,62
164,61
161,63
195,46
193,49
141,45
148,49
171,56
178,61
156,59
164,62
164,61
161,63
149,60
150,55
140,54
150,53
135,49
132,44
157,44
156,46
149,50
182,56
195,65
179,66
187,65
186,61
154,56
134,50
132,48
132,49
130,48
156,48
195,65
179,66
187,65
186,61
154,56
134,50
132,48
132,49
130,48
156,48
181,50
234,66
230,66
238,75
235,72
266,75
248,69
247,71
237,63
221,64
182,60
144,52
141,49
158,53
166,53
141,50
141,51
160,49
145,58
142,59
182,60
144,52
141,49
158,53
166,53
141,50
141,51
160,49
145,58
142,59
144,63
165,64
161,64
168,54
209,67
225,67
217,67
233,72
250,76
220,67
200,61
212,73
221,77
200,69
201,68
212,73
192,65
144,56
176,65
189,68
200,61
212,73
221,77
200,69
201,68
212,73
192,65
144,56
176,65
189,68
200,68
195,63
206,64
184,58
179,59
162,53
167,57
154,59
144,56
127,54
178,62
205,59
206,54
223,57
219,53
176,47
143,47
153,52
132,56
137,55
178,62
205,59
206,54
223,57
219,53
176,47
143,47
153,52
132,56
137,55
150,55
140,53
139,55
133,48
126,48
93,49
91,48
68,49
64,49
62,50
89,50
107,51
123,52
129,51
143,51
144,52
145,55
213,51
210,53
208,52
89,50
107,51
123,52
129,51
143,51
144,52
145,55
213,51
210,53
208,52
199,58
194,67
115,74
129,93
154,100
164,99
191,112
212,135
232,134
225,134
228,149
236,160
255,182
254,185
253,185
276,186
271,177
234,153
310,156
358,176
177,67
193,71
234,74
229,69
241,73
266,80
268,78
255,80
240,83
229,77
205,68
203,68
202,61
211,58
211,57
206,58
193,54
178,61
172,59
176,58
192,60
218,64
216,61
237,62
227,63
220,59
221,66
220,74
196,77
190,76
192,60
218,64
216,61
237,62
227,63
220,59
221,66
220,74
196,77
190,76
224,77
199,69
187,66
191,60
197,62
160,58
163,58
168,50
161,50
154,45
146,45
141,45
137,46
139,43
170,47
174,50
203,57
194,60
216,69
212,67
146,45
141,45
137,46
139,43
170,47
174,50
203,57
194,60
216,69
212,67
278,71
263,65
270,63
256,56
247,61
179,56
177,55
178,50
172,50
168,49
166,54
156,55
161,59
167,58
167,57
146,50
161,48
181,56
194,58
188,60
166,54
156,55
161,59
167,58
167,57
146,50
161,48
181,56
194,58
188,60
206,62
207,63
207,58
188,54
196,55
203,62
206,61
187,61
194,61
195,55
173,45
177,50
164,54
159,53
159,54
157,52
157,50
186,48
193,50
188,49
173,45
177,50
164,54
159,53
159,54
157,52
157,50
186,48
193,50
188,49
194,52
181,51
165,49
162,49
165,52
175,54
169,57
172,54
170,54
172,53
168,52
172,46
160,48
153,46
162,45
170,46
184,55
190,53
187,54
185,55
168,52
172,46
160,48
153,46
162,45
170,46
184,55
190,53
187,54
185,55
170,52
152,43
164,47
177,46
185,46
176,52
176,55
162,50
157,54
131,55
160,53
157,53
165,59
195,59
197,60
199,65
217,64
214,64
180,61
182,59
160,53
157,53
165,59
195,59
197,60
199,65
217,64
214,64
180,61
182,59
156,52
141,50
179,45
189,46
185,48
188,51
185,50
163,51
178,51
186,45
187,44
189,55
207,57
195,58
193,58
196,56
202,55
155,55
170,57
182,57
187,44
189,55
207,57
195,58
193,58
196,56
202,55
155,55
170,57
182,57
189,56
188,50
216,53
192,50
183,52
171,54
176,55
166,51
186,52
191,54
213,54
207,49
185,46
166,43
158,42
158,42
140,42
145,44
168,48
201,51
213,54
207,49
185,46
166,43
158,42
158,42
140,42
145,44
168,48
201,51
189,49
211,50
220,53
214,54
178,50
169,51
160,60
164,55
171,52
176,56
185,61
171,51
167,52
149,57
171,62
171,61
170,62
154,67
151,67
114,62
185,61
171,51
167,52
149,57
171,62
171,61
170,62
154,67
151,67
114,62
113,57
152,60
151,55
171,57
191,69
188,72
166,72
184,74
185,69
168,55
167,52
166,48
179,49
167,46
175,49
171,62
185,63
159,59
167,61
168,61
167,52
166,48
179,49
167,46
175,49
171,62
185,63
159,59
167,61
168,61
174,54
163,56
159,57
137,56
126,54
103,49
82,51
91,52
95,51
91,50
95,59
98,63
89,69
91,74
81,76
82,76
131,92
232,94
238,91
243,104
95,59
98,63
89,69
91,74
81,76
82,76
131,92
232,94
238,91
243,104
260,108
286,100
237,108
277,119
303,121
293,123
249,129
242,133
215,148
185,158
205,175
261,206
310,207
313,193
320,185
310,168
288,136
264,132
276,150
274,150
196,55
212,54
202,59
223,67
241,70
254,86
236,83
252,80
222,75
214,73
189,49
189,54
207,54
235,50
219,56
243,65
257,68
240,76
212,75
235,75
244,73
228,75
214,68
218,74
199,69
167,64
190,65
201,67
201,60
219,68
244,73
228,75
214,68
218,74
199,69
167,64
190,65
201,67
201,60
219,68
223,70
230,65
230,65
224,66
216,57
260,64
244,64
238,61
236,63
243,69
179,63
180,59
190,60
191,56
190,51
202,52
202,60
191,59
189,66
161,68
179,63
180,59
190,60
191,56
190,51
202,52
202,60
191,59
189,66
161,68
144,63
171,57
174,58
179,53
190,51
192,53
173,53
197,55
206,55
200,54
202,59
183,58
178,56
186,55
192,54
185,47
182,47
188,45
198,49
193,53
202,59
183,58
178,56
186,55
192,54
185,47
182,47
188,45
198,49
193,53
210,60
231,61
210,70
202,69
248,69
242,64
228,63
228,53
223,53
170,46
187,49
195,50
195,59
197,59
225,65
225,68
222,67
216,61
205,58
209,57
187,49
195,50
195,59
197,59
225,65
225,68
222,67
216,61
205,58
209,57
196,57
214,69
223,68
222,68
199,62
196,61
204,58
206,60
203,64
185,65
191,61
176,62
179,66
185,61
208,65
213,65
192,53
184,44
185,46
168,42
191,61
176,62
179,66
185,61
208,65
213,65
192,53
184,44
185,46
168,42
142,43
174,52
166,56
161,53
163,54
190,52
176,51
185,46
182,49
178,51
147,53
139,47
123,51
142,58
140,60
161,60
185,62
212,64
218,57
234,51
147,53
139,47
123,51
142,58
140,60
161,60
185,62
212,64
218,57
234,51
274,66
265,65
264,66
246,66
232,67
190,51
182,54
165,52
206,55
215,54
197,54
188,50
180,44
161,45
164,53
164,56
202,62
212,65
200,64
193,60
197,54
188,50
180,44
161,45
164,53
164,56
202,62
212,65
200,64
193,60
195,57
160,49
184,57
209,61
200,60
199,59
193,60
160,53
127,52
197,61
205,62
212,63
235,61
243,59
202,52
193,51
209,52
204,56
210,57
195,50
205,62
212,63
235,61
243,59
202,52
193,51
209,52
204,56
210,57
195,50
220,55
210,53
188,47
173,41
188,45
170,48
171,54
173,61
162,60
159,63
144,58
157,53
154,51
151,53
158,56
182,56
161,60
165,53
169,52
149,44
144,58
157,53
154,51
151,53
158,56
182,56
161,60
165,53
169,52
149,44
131,41
159,63
176,67
176,72
186,76
179,78
157,61
152,59
149,54
143,50
180,52
180,54
169,55
173,54
168,52
126,49
110,45
91,44
72,47
63,47
180,52
180,54
169,55
173,54
168,52
126,49
110,45
91,44
72,47
63,47
41,51
89,54
91,57
113,57
165,61
200,70
202,73
209,73
200,77
166,81
151,80
138,84
169,104
199,130
213,143
248,145
298,154
281,149
278,143
272,152
151,80
138,84
169,104
199,130
213,143
248,145
298,154
281,149
278,143
272,152
253,160
199,163
209,162
190,154
185,135
189,127
242,121
239,124
250,120
267,118
258,119
261,124
265,130
259,134
257,138
247,135
194,139
214,143
214,146
206,155
236,57
237,63
223,71
231,76
199,73
207,77
235,74
247,69
260,66
253,65
252,65
238,75
222,79
194,76
189,77
201,74
217,73
254,71
246,70
248,68
240,70
223,61
193,54
194,55
200,59
218,60
213,72
206,79
238,78
242,79
240,70
223,61
193,54
194,55
200,59
218,60
213,72
206,79
238,78
242,79
230,78
212,63
242,60
223,61
217,59
234,64
256,79
241,75
232,74
232,76
224,77
211,66
199,65
231,64
225,61
252,55
235,47
240,54
237,54
246,61
224,77
211,66
199,65
231,64
225,61
252,55
235,47
240,54
237,54
246,61
243,66
246,68
241,66
270,68
279,60
245,55
272,54
273,54
220,52
205,52
205,55
164,54
154,60
182,64
207,71
205,67
210,65
214,59
201,58
178,51
205,55
164,54
154,60
182,64
207,71
205,67
210,65
214,59
201,58
178,51
186,54
186,57
209,61
193,58
183,55
166,55
167,56
143,53
158,52
185,56
214,64
220,65
223,70
210,71
321,87
324,84
337,81
337,78
345,80
237,62
214,64
220,65
223,70
210,71
321,87
324,84
337,81
337,78
345,80
237,62
226,57
194,56
187,54
172,51
206,66
198,68
199,69
215,70
233,73
208,61
239,71
253,77
252,73
251,75
245,75
221,67
216,60
210,66
195,59
193,62
239,71
253,77
252,73
251,75
245,75
221,67
216,60
210,66
195,59
193,62
184,61
189,60
193,56
197,60
185,56
212,59
212,64
232,68
239,63
246,64
230,57
227,55
182,47
190,52
194,48
188,51
195,56
238,59
230,57
224,63
230,57
227,55
182,47
190,52
194,48
188,51
195,56
238,59
230,57
224,63
222,61
208,49
180,54
201,58
202,56
192,60
191,64
195,57
173,55
173,52
183,52
192,47
203,53
208,49
210,56
226,61
222,66
204,71
195,72
197,78
183,52
192,47
203,53
208,49
210,56
226,61
222,66
204,71
195,72
197,78
165,74
161,70
163,65
180,70
181,59
234,59
239,66
225,63
229,59
229,62
184,58
181,51
203,62
199,60
194,59
195,61
185,67
167,60
155,60
152,60
184,58
181,51
203,62
199,60
194,59
195,61
185,67
167,60
155,60
152,60
151,62
160,56
172,55
172,58
161,54
151,49
133,48
103,44
54,40
74,44
103,49
168,49
192,53
208,57
214,63
206,58
168,56
147,58
131,55
168,49
103,49
168,49
192,53
208,57
214,63
206,58
168,56
147,58
131,55
168,49
166,50
185,54
190,56
194,56
185,63
205,76
190,75
221,74
221,81
189,76
178,63
175,63
192,64
218,65
253,71
253,73
265,78
225,77
203,69
179,61
178,63
175,63
192,64
218,65
253,71
253,73
265,78
225,77
203,69
179,61
175,61
152,57
167,56
156,53
137,56
125,57
121,61
117,59
134,62
140,67
145,67
162,69
154,81
166,88
195,101
198,113
207,118
224,122
230,124
295,114
145,67
162,69
154,81
166,88
195,101
198,113
207,118
224,122
230,124
295,114
298,107
289,115
302,130
317,142
266,171
273,175
330,174
323,166
345,190
358,172
373,182
362,188
361,195
381,170
363,179
383,174
371,160
394,177
349,180
349,169
173,40
175,39
206,56
207,60
219,67
183,62
201,64
177,52
183,59
177,53
181,54
174,61
173,66
157,58
176,67
188,68
237,69
240,67
240,69
234,60
231,60
174,57
159,52
170,48
162,51
175,57
178,54
180,56
166,56
157,51
231,60
174,57
159,52
170,48
162,51
175,57
178,54
180,56
166,56
157,51
133,41
152,40
175,46
178,49
207,55
218,54
217,53
199,46
212,49
226,52
219,53
233,52
233,59
232,55
205,52
233,56
222,62
221,60
222,65
210,59
219,53
233,52
233,59
232,55
205,52
233,56
222,62
221,60
222,65
210,59
181,55
187,57
206,60
203,57
210,61
259,77
237,70
227,68
216,65
207,65
125,46
124,42
122,38
138,41
134,38
133,42
142,49
136,49
156,54
160,53
125,46
124,42
122,38
138,41
134,38
133,42
142,49
136,49
156,54
160,53
169,51
176,46
183,45
173,40
168,41
171,40
160,38
193,46
190,44
203,45
194,47
213,49
173,43
178,45
167,42
176,39
169,39
198,43
185,40
187,41
194,47
213,49
173,43
178,45
167,42
176,39
169,39
198,43
185,40
187,41
184,42
176,45
172,47
197,48
195,49
190,51
198,49
175,47
150,46
150,45
149,44
126,41
125,40
131,46
147,47
144,46
133,47
131,44
162,41
148,38
149,44
126,41
125,40
131,46
147,47
144,46
133,47
131,44
162,41
148,38
148,36
151,38
157,42
136,38
175,40
181,41
204,41
205,36
196,40
181,37
193,42
178,43
176,42
192,44
200,53
189,49
191,46
185,47
164,44
181,40
193,42
178,43
176,42
192,44
200,53
189,49
191,46
185,47
164,44
181,40
181,43
176,43
187,44
196,44
178,45
176,43
177,47
172,45
170,46
171,49
213,55
208,53
217,54
213,52
204,45
164,42
170,41
159,42
160,46
148,43
213,55
208,53
217,54
213,52
204,45
164,42
170,41
159,42
160,46
148,43
175,42
